1579783503.00
64.000000
-0.00
-0.00
-0.00
-0.00
-0.00
-0.00
-0.00
-0.00
-0.00
-0.00
0.00
0.01
0.01
-0.00
-0.03
-0.05
-0.05
0.00
0.13
0.36
0.66
1.01
1.37
1.72
2.06
2.40
2.79
3.24
3.80
4.42
5.06
5.66
6.20
6.68
7.15
7.68
8.31
9.14
10.09
11.04
11.88
12.56
13.14
13.76
14.65
15.96
17.91
20.32
22.90
25.38
27.58
29.57
31.68
34.32
37.81
42.54
48.15
54.10
59.83
64.97
69.58
74.14
79.34
85.71
93.76
103.00
112.62
121.73
129.77
136.75
143.30
150.75
157.77
166.64
177.95
191.79
206.97
220.57
228.25
225.36
208.53
176.87
132.76
80.05
23.07
-34.94
-92.44
-149.16
-205.23
-260.37
-313.74
-363.87
-409.83
-450.91
-486.50
-515.74
-537.23
-549.22
-549.96
-538.37
-514.21
-478.67
-433.88
-382.45
-327.02
-269.84
-212.63
-156.66
-102.95
-52.37
-5.90
35.58
71.43
101.35
125.50
144.38
158.69
169.15
176.37
180.75
182.57
182.07
179.51
175.23
169.65
163.18
156.15
148.81
141.30
133.69
126.02
118.33
110.69
103.16
95.80
88.68
81.83
75.25
68.95
62.95
57.25
51.86
46.78
42.03
37.59
33.45
29.61
26.07
22.81
19.83
17.11
14.67
12.48
10.54
8.83
7.35
6.07
4.97
4.05
3.27
2.62
2.09
1.65
1.30
1.01
0.79
0.61
0.48
0.38
0.30
0.25
0.22
0.20
0.19
0.20
0.22
0.24
0.28
0.31
0.35
0.39
0.44
0.48
0.53
0.58
0.63
0.69
0.75
0.81
0.88
0.95
1.04
1.13
1.23
1.34
1.47
1.61
1.77
1.95
2.15
2.37
2.62
2.89
3.19
3.52
3.88
4.27
4.70
5.17
5.67
6.21
6.79
7.42
8.09
8.80
9.56
10.36
11.21
12.10
13.04
14.04
15.09
16.21
17.39
18.63
19.91
21.22
22.47
23.61
24.54
25.13
25.25
24.80
23.68
21.83
19.25
15.98
12.11
7.80
3.26
-1.31
-5.68
-9.66
-13.08
-15.82
-17.82
-19.05
-19.54
-19.38
-18.67
-17.55
-16.13
-14.56
-12.93
-11.30
-9.67
-8.02
-6.35
-4.64
-2.92
-1.18
0.54
2.23
3.89
5.57
7.38
9.29
11.28
13.36
15.49
17.61
19.72
21.84
24.10
26.75
29.69
32.92
36.34
39.79
43.10
46.11
48.83
51.48
54.52
57.91
61.67
65.69
69.62
73.03
75.56
77.08
77.86
78.52
79.06
79.50
79.55
78.47
75.21
68.58
57.40
40.31
20.65
-0.15
-21.19
-42.05
-62.81
-83.93
-106.20
-130.52
-157.61
-187.41
-219.21
-250.40
-276.88
-294.27
-299.41
-291.56
-272.81
-247.07
-218.67
-191.32
-166.81
-145.06
-125.03
-105.30
-84.64
-62.03
-36.65
-8.11
22.97
55.05
85.71
111.96
130.81
139.99
138.43
126.57
106.27
80.33
52.09
24.78
0.91
-17.99
-31.21
-38.67
-40.59
-37.43
-30.03
-19.81
-8.71
1.04
7.43
9.24
6.19
-1.15
-11.78
-24.57
-38.25
-51.14
-60.86
-64.42
-58.78
-41.95
-13.91
22.90
64.08
104.36
138.99
164.69
180.00
184.95
180.43
167.77
148.54
124.53
97.81
70.48
44.40
20.76
0.15
-17.36
-31.77
-42.84
-50.12
-53.14
-51.77
-46.40
-37.94
-27.44
-15.83
-3.72
8.70
21.25
33.69
45.38
55.47
63.03
67.31
67.97
65.05
58.87
49.82
38.26
24.43
8.58
-8.98
-27.67
-46.41
-63.68
-77.56
-86.16
-88.20
-83.56
-73.62
-61.05
-49.10
-40.51
-36.73
-37.39
-40.81
-44.77
-47.49
-48.20
-47.10
-44.84
-41.80
-37.80
-32.11
-23.94
-13.03
-0.13
12.92
23.58
29.29
28.32
20.48
7.40
-7.73
-20.89
-28.28
-27.36
-17.47
-0.03
21.89
44.31
63.20
75.31
78.59
72.54
58.01
37.00
12.21
-13.41
-37.11
-56.69
-70.65
-78.30
-79.54
-74.72
-64.49
-49.82
-32.22
-13.78
2.90
15.24
21.35
20.74
14.39
4.47
-6.56
-16.85
-25.67
-33.51
-41.47
-50.59
-61.15
-72.45
-82.77
-89.74
-90.87
-84.16
-68.78
-45.55
-17.11
12.38
38.15
55.97
63.36
60.46
50.17
37.54
28.55
28.47
40.39
64.18
96.26
130.27
158.38
173.20
169.46
145.38
103.14
48.49
-10.43
-64.77
-106.66
-130.68
-134.50
-119.06
-87.91
-46.36
-0.48
43.83
81.56
109.15
124.80
128.58
122.22
108.61
91.15
73.03
56.66
43.38
33.51
26.64
21.97
18.65
15.95
13.54
11.51
10.63
12.29
18.24
29.89
47.54
69.72
92.99
112.54
123.31
121.12
103.63
70.63
23.91
-33.05
-95.27
-156.57
-210.08
-249.14
-268.66
-266.33
-243.36
-204.27
-155.85
-105.55
-59.93
-23.57
1.47
15.59
21.12
21.53
20.40
20.35
22.41
25.81
28.55
28.33
23.64
14.46
2.37
-9.84
-19.01
-22.46
-18.70
-7.70
9.08
29.13
49.47
67.36
80.93
89.34
92.75
91.96
87.97
81.77
74.38
67.02
61.26
58.87
61.38
69.52
82.90
100.03
118.76
137.05
153.51
167.62
179.63
190.03
199.14
206.84
212.72
216.42
218.04
218.20
217.73
217.07
215.70
212.02
203.78
188.85
165.94
134.92
96.78
53.47
7.85
-36.47
-75.29
-104.41
-120.59
-122.50
-111.31
-90.57
-65.22
-40.27
-19.67
-5.76
0.73
0.09
-6.82
-18.99
-35.36
-54.74
-75.62
-96.11
-114.23
-128.61
-139.23
-147.53
-155.77
-165.83
-178.02
-190.80
-201.33
-207.17
-207.70
-204.75
-201.95
-203.19
-210.87
-224.84
-242.46
-259.50
-271.46
-274.74
-267.45
-249.68
-223.48
-192.35
-160.36
-131.28
-107.96
-92.02
-83.98
-83.56
-89.91
-101.73
-117.24
-134.61
-152.47
-170.08
-187.18
-203.39
-217.71
-228.37
-233.26
-230.53
-219.64
-201.92
-180.15
-157.64
-137.18
-120.39
-107.71
-98.61
-91.50
-84.66
-76.77
-67.22
-55.95
-43.20
-29.36
-14.85
0.03
16.79
37.13
62.06
91.43
124.10
158.43
192.24
222.74
246.77
264.78
277.88
286.53
289.71
285.87
274.32
255.40
229.93
198.89
168.83
146.67
137.31
142.08
159.54
187.22
221.75
258.84
294.02
330.82
374.50
428.63
492.54
562.46
634.68
706.62
776.85
802.87
755.18
630.51
456.93
273.70
108.63
-26.75
-131.76
-210.04
-266.38
-299.08
-307.21
-293.70
-266.54
-235.89
-209.37
-191.21
-182.54
-183.31
-188.27
-193.10
-196.63
-199.77
-206.10
-215.25
-223.50
-225.73
-219.98
-206.43
-189.80
-176.92
-173.47
-180.29
-191.72
-200.08
-200.63
-193.50
-181.53
-168.68
-157.23
-146.95
-135.78
-120.88
-100.63
-73.35
-39.27
-0.18
40.53
78.57
109.75
130.96
141.94
134.22
108.55
73.27
40.28
18.87
12.16
17.60
29.70
43.21
54.19
62.40
68.15
71.27
71.11
67.31
60.44
51.78
43.91
39.17
40.19
47.35
58.34
69.32
76.59
79.07
75.30
65.14
48.62
26.99
2.40
-22.39
-43.88
-59.14
-66.37
-68.71
-71.60
-79.26
-93.12
-109.11
-122.49
-129.41
-128.60
-121.23
-110.17
-97.95
-85.81
-74.15
-63.39
-55.50
-52.23
-53.68
-58.17
-63.17
-66.17
-65.52
-61.79
-54.41
-46.47
-41.50
-40.92
-43.78
-47.47
-49.48
-46.34
-35.62
-17.01
6.13
28.52
46.08
56.16
57.32
47.37
27.95
1.86
-28.14
-61.78
-99.23
-137.03
-169.64
-192.23
-206.16
-211.83
-210.63
-204.07
-194.59
-182.77
-163.38
-129.70
-78.39
-15.81
53.43
125.26
197.26
266.04
307.97
303.48
252.85
203.30
168.61
152.46
144.22
140.83
139.94
139.97
143.66
154.83
174.99
198.01
221.17
242.73
260.88
272.37
275.11
271.76
266.78
263.26
258.17
250.68
240.45
225.82
205.26
180.15
156.11
138.61
129.49
124.32
118.92
109.81
91.59
61.10
20.34
-24.27
-66.61
-103.77
-136.99
-167.85
-198.10
-234.42
-282.02
-340.64
-404.68
-467.52
-524.18
-572.14
-610.09
-604.82
-540.47
-431.12
-309.33
-199.58
-109.92
-38.89
17.06
60.61
93.83
113.86
119.87
115.60
107.09
98.00
88.23
76.61
63.89
53.28
44.85
38.17
33.55
31.63
32.45
35.70
42.32
54.32
72.75
92.93
108.43
114.39
109.67
97.22
81.91
69.12
62.43
61.85
62.37
57.23
42.45
18.32
-10.74
-39.71
-64.80
-84.93
-101.90
-115.40
-128.43
-142.04
-158.82
-174.97
-187.83
-196.25
-199.81
-197.97
-189.45
-173.41
-149.53
-118.64
-82.03
-42.01
-0.29
42.40
83.12
117.96
141.56
148.90
137.08
107.87
67.65
26.95
-2.48
-11.68
2.74
37.05
82.20
127.20
163.43
186.59
197.49
200.42
200.66
202.72
209.45
222.66
243.43
272.00
306.63
343.24
375.88
398.60
407.84
403.55
388.99
368.79
346.84
324.73
301.76
276.01
245.77
210.42
170.50
127.26
82.23
37.02
-6.86
-48.09
-85.94
-120.60
-153.19
-185.32
-218.16
-251.52
-283.35
-310.19
-328.11
-334.11
-327.29
-309.46
-284.90
-259.39
-238.69
-226.86
-225.02
-231.13
-240.82
-249.20
-252.61
-249.71
-241.31
-229.40
-215.77
-201.43
-186.80
-172.66
-160.88
-154.26
-155.46
-165.45
-182.35
-201.17
-215.08
-217.32
-203.20
-171.08
-122.45
-61.19
7.26
76.22
137.90
184.13
208.21
207.69
186.58
155.20
127.29
114.82
123.46
150.61
187.15
221.84
245.90
255.51
251.39
236.45
213.41
183.73
148.26
108.62
68.07
30.91
0.87
-20.59
-34.96
-46.09
-58.33
-74.55
-94.93
-117.09
-137.39
-152.72
-162.03
-166.69
-169.78
-174.42
-182.17
-192.06
-200.88
-204.55
-199.97
-186.53
-166.64
-144.96
-126.89
-116.88
-117.24
-127.66
-145.36
-165.67
-183.09
-192.54
-190.51
-176.06
-150.79
-118.09
-81.76
-44.53
-7.05
31.97
74.89
123.19
175.58
227.12
269.90
295.33
297.17
273.89
229.28
171.01
107.96
47.44
-5.95
-50.08
-84.09
-107.50
-120.49
-124.67
-123.68
-122.66
-126.77
-139.24
-160.40
-187.51
-215.73
-239.90
-255.98
-261.97
-258.11
-246.48
-229.87
-210.97
-191.01
-169.87
-146.83
-121.43
-94.05
-65.96
-38.64
-12.80
11.95
38.06
68.81
107.09
154.52
210.93
274.10
339.31
399.88
447.68
476.80
484.35
470.85
439.64
395.39
342.61
284.76
225.13
166.48
114.01
73.09
46.79
34.84
34.02
40.13
49.74
62.50
70.85
70.03
59.19
42.23
25.53
13.87
9.30
11.06
22.04
39.35
62.23
90.51
122.24
154.29
182.61
203.47
205.78
185.29
143.74
91.41
42.65
9.26
-1.58
10.76
41.63
82.73
123.29
151.79
162.66
165.13
164.04
160.84
152.67
139.72
123.34
106.01
89.98
77.92
71.42
68.68
66.97
63.55
56.72
45.47
28.95
7.86
-14.94
-36.06
-54.80
-72.14
-90.08
-110.18
-133.14
-160.84
-192.50
-224.04
-249.88
-267.12
-275.96
-279.05
-279.83
-281.73
-292.29
-315.87
-350.75
-389.25
-422.34
-442.40
-444.92
-429.38
-400.01
-371.65
-358.49
-367.57
-396.70
-438.40
-484.27
-527.26
-562.77
-547.37
-461.11
-318.16
-157.54
-13.16
101.09
186.16
248.27
293.32
325.33
339.36
334.21
314.03
288.28
266.64
254.90
254.08
261.71
273.54
279.84
271.51
244.70
201.01
145.05
83.33
24.90
-19.03
-37.96
-29.63
1.16
43.84
85.30
113.16
118.92
100.03
59.45
3.38
-62.39
-131.05
-193.65
-239.45
-258.36
-243.94
-195.50
-118.64
-24.29
73.49
161.29
229.42
273.37
293.60
294.09
280.11
256.34
225.96
190.86
152.85
114.67
80.13
52.88
34.67
24.54
19.25
15.14
10.25
5.28
2.94
6.31
17.24
35.49
58.92
84.34
108.47
128.73
143.68
152.98
156.77
155.21
148.36
136.22
118.77
96.28
69.78
41.53
14.71
-7.73
-23.92
-33.52
-37.63
-38.43
-38.54
-40.13
-44.22
-50.68
-59.18
-69.35
-80.90
-93.45
-106.62
-120.13
-133.48
-145.49
-152.22
-149.75
-137.21
-118.39
-99.09
-82.91
-69.71
-56.86
-41.60
-22.85
-3.14
12.80
20.63
18.57
8.18
-6.64
-22.21
-34.27
-39.77
-38.33
-32.12
-24.76
-19.51
-17.82
-19.02
-20.92
-20.99
-17.95
-12.54
-6.75
-2.34
0.61
3.66
8.74
16.74
26.77
36.10
41.18
39.14
28.76
11.14
-10.50
-31.89
-48.57
-56.98
-55.49
-45.29
-30.59
-17.70
-12.48
-17.33
-30.36
-46.24
-58.83
-64.02
-61.20
-52.66
-41.74
-30.20
-16.89
-0.12
19.85
39.95
55.40
62.34
59.50
47.67
29.78
10.64
-5.70
-16.74
-21.33
-18.79
-8.49
9.48
32.68
58.43
86.10
115.60
146.47
177.51
207.38
235.75
263.42
290.73
305.90
301.47
277.04
239.03
195.75
153.21
115.47
91.26
77.58
70.74
68.08
66.65
62.32
52.83
37.26
18.18
2.45
-5.60
-4.36
4.16
14.69
20.37
17.36
6.59
-7.90
-20.59
-30.56
-38.82
-48.46
-62.76
-87.69
-126.98
-179.53
-240.15
-301.03
-355.42
-396.10
-418.78
-400.63
-336.14
-243.85
-156.31
-98.52
-74.12
-78.04
-90.00
-95.34
-87.58
-71.31
-55.00
-37.99
-22.33
-9.70
-1.68
2.81
5.30
8.01
9.37
6.72
-1.38
-14.58
-28.99
-38.86
-37.63
-22.21
6.22
40.57
72.95
99.01
118.67
135.32
151.39
165.29
169.78
155.30
114.41
47.76
-33.76
-112.29
-168.73
-189.91
-172.64
-123.97
-57.59
10.83
68.11
105.61
119.09
108.10
75.21
26.03
-31.39
-88.13
-137.10
-175.21
-203.62
-225.45
-242.03
-250.70
-245.02
-217.77
-164.65
-86.38
12.04
123.60
241.52
359.39
470.16
565.23
635.63
674.82
681.48
660.15
618.93
566.50
509.38
451.39
394.53
340.00
288.64
240.34
193.43
144.92
91.83
32.49
-32.39
-99.65
-164.12
-219.84
-261.28
-284.77
-289.50
-277.95
-255.36
-228.57
-204.81
-190.48
-190.50
-207.41
-240.33
-284.44
-331.42
-371.49
-396.29
-401.52
-387.99
-360.53
-325.48
-288.01
-250.78
-213.93
-176.06
-135.33
-90.00
-38.62
19.65
84.53
153.78
222.94
285.92
336.57
370.48
386.11
384.99
370.70
347.54
319.36
289.09
258.80
229.94
203.51
179.80
158.27
137.65
116.40
93.29
67.85
40.38
11.66
-17.49
-46.80
-76.58
-107.56
-140.61
-176.53
-216.01
-259.56
-307.08
-357.26
-407.16
-452.26
-487.44
-508.50
-513.34
-502.50
-478.55
-445.08
-405.60
-363.10
-320.06
-278.58
-240.24
-205.72
-174.59
-145.45
-116.77
-87.76
-58.59
-30.26
-3.69
21.09
45.20
70.76
100.33
136.50
180.95
233.47
290.87
346.56
391.47
416.51
415.56
387.86
338.25
275.23
207.90
143.31
85.43
35.93
-4.24
-33.75
-51.06
-55.61
-49.06
-35.50
-20.49
-9.23
-5.02
-8.61
-18.49
-32.22
-47.66
-63.87
-81.19
-100.83
-123.91
-150.37
-178.42
-204.71
-225.11
-236.06
-235.74
-224.68
-205.46
-181.42
-155.07
-127.17
-96.83
-62.61
-24.02
17.60
59.10
96.43
126.24
147.11
159.78
166.36
168.95
168.60
164.98
156.97
143.44
124.50
101.87
78.19
55.81
35.55
16.72
-2.04
-21.72
-42.63
-63.52
-81.76
-94.18
-98.62
-95.23
-86.70
-77.30
-71.53
-72.87
-81.32
-92.66
-99.54
-94.55
-73.61
-37.52
8.51
56.23
95.89
119.77
124.42
111.18
84.84
51.36
16.62
-14.41
-30.38
-23.55
5.96
49.43
95.36
135.22
164.32
179.74
183.42
178.12
166.85
153.79
143.78
140.91
147.84
162.44
179.06
191.17
193.42
182.50
158.11
122.50
79.54
33.66
-11.06
-50.47
-80.31
-97.47
-101.39
-94.06
-79.48
-62.33
-46.79
-35.94
-31.24
-32.52
-38.87
-49.32
-62.92
-78.82
-96.25
-114.55
-133.31
-151.92
-169.22
-183.67
-193.91
-199.46
-201.11
-200.54
-199.19
-197.12
-192.33
-181.37
-160.98
-129.61
-88.09
-38.83
15.58
73.44
133.62
194.12
250.69
296.69
324.87
330.15
311.95
274.81
226.82
176.79
131.65
95.01
67.29
46.95
31.81
19.96
10.18
1.78
-5.42
-11.34
-15.78
-18.65
-20.08
-20.48
-20.40
-20.34
-20.72
-21.95
-24.37
-28.15
-32.86
-37.28
-39.61
-38.18
-32.34
-23.08
-12.84
-4.52
-0.25
-0.56
-4.29
-9.32
-13.53
-15.48
-14.59
-10.86
-4.62
3.53
12.64
21.28
27.77
30.47
28.24
20.68
8.31
-8.14
-27.67
-49.48
-72.98
-97.69
-123.03
-148.21
-172.29
-194.14
-212.99
-228.24
-239.53
-246.78
-250.07
-249.32
-244.25
-234.26
-218.13
-195.22
-164.79
-127.04
-83.83
-39.02
1.82
32.29
46.73
42.56
18.97
-19.87
-66.34
-111.13
-145.81
-165.05
-167.83
-156.85
-134.95
-108.43
-79.89
-49.74
-17.24
18.36
56.86
97.02
136.93
176.95
210.63
233.69
241.83
232.60
207.16
170.65
131.07
96.54
76.42
68.70
72.33
85.39
107.19
139.11
183.74
242.75
290.32
349.34
406.44
451.87
478.26
482.89
467.96
438.96
401.91
361.05
321.96
281.02
238.78
197.16
159.32
127.99
103.85
84.80
66.69
47.92
22.31
-10.91
-49.80
-90.34
-127.63
-157.18
-176.01
-183.42
-179.06
-167.84
-153.14
-137.58
-122.34
-107.22
-91.48
-74.95
-58.92
-45.25
-38.11
-39.85
-50.71
-68.69
-90.53
-113.20
-135.12
-156.32
-177.00
-197.26
-215.40
-228.86
-235.78
-236.43
-233.42
-230.67
-231.57
-237.41
-246.76
-256.04
-260.82
-257.43
-244.13
-221.65
-192.79
-161.51
-131.60
-105.48
-83.54
-64.40
-45.91
-26.29
-5.07
16.80
37.35
54.26
65.50
69.83
67.20
58.72
46.52
33.27
21.61
13.66
10.63
12.76
19.42
29.52
41.88
55.30
68.65
80.98
91.52
99.86
106.08
111.02
116.80
127.16
147.24
181.96
233.64
299.67
371.80
438.07
486.44
509.06
504.89
479.31
441.17
398.89
357.65
318.86
281.59
244.51
207.04
169.13
129.99
87.15
36.73
-24.54
-96.61
-174.40
-248.26
-306.98
-342.45
-353.34
-345.93
-331.35
-320.45
-319.04
-325.92
-334.46
-336.57
-326.69
-303.61
-269.69
-228.53
-182.83
-133.67
-81.34
-26.83
27.58
78.60
123.36
160.50
190.18
212.86
227.66
231.92
222.56
198.87
164.63
128.31
100.31
88.67
95.37
115.17
137.85
152.55
152.19
135.52
106.48
71.45
36.12
3.50
-26.27
-54.52
-82.23
-108.87
-132.51
-151.09
-163.84
-172.04
-178.23
-184.43
-190.37
-193.14
-188.16
-171.25
-140.65
-98.03
-48.11
2.50
47.10
80.42
99.84
105.76
101.19
90.18
76.06
60.07
41.49
18.91
-7.94
-37.38
-66.36
-91.97
-112.68
-128.18
-138.38
-142.34
-138.32
-124.95
-102.82
-74.99
-46.24
-21.22
-2.87
7.91
11.58
8.96
0.81
-11.95
-27.57
-43.51
-57.02
-66.14
-70.23
-69.89
-66.20
-60.09
-51.98
-41.98
-30.38
-18.16
-6.92
1.59
6.22
7.08
5.52
3.48
2.55
3.14
4.29
4.25
1.42
-4.61
-12.64
-20.06
-23.73
-21.21
-11.72
3.32
20.61
35.96
45.62
47.45
41.51
29.70
14.90
-0.02
-12.88
-22.19
-27.09
-27.26
-23.20
-16.38
-9.08
-3.60
-1.23
-1.60
-2.95
-3.13
-0.83
3.70
8.92
12.98
14.84
14.78
14.03
13.88
14.88
16.52
17.62
17.05
14.39
10.05
5.09
0.55
-3.05
-5.98
-9.15
-13.65
-20.20
-28.85
-39.03
-49.87
-60.61
-70.74
-79.79
-87.07
-91.68
-92.87
-90.67
-86.24
-81.47
-77.97
-76.04
-74.28
-70.23
-61.76
-48.36
-31.57
-14.29
0.69
12.02
20.26
27.39
35.51
45.78
57.83
70.15
80.85
88.53
92.73
93.89
93.02
91.31
89.90
89.72
91.40
95.10
100.37
106.06
110.56
112.24
109.87
102.97
91.80
77.16
60.22
42.38
25.36
11.02
1.17
-2.98
-1.28
5.09
13.82
22.16
27.79
29.54
27.62
23.29
18.18
13.69
10.60
9.21
9.51
11.47
15.00
19.78
25.06
29.82
33.03
34.23
33.69
32.43
31.65
32.23
34.27
37.05
39.39
40.09
38.58
35.22
31.25
28.47
28.49
32.03
38.27
44.49
46.37
39.01
18.48
-16.17
-61.65
-110.51
-152.87
-179.53
-185.21
-170.46
-141.58
-108.38
-80.87
-66.04
-66.20
-78.97
-98.81
-119.00
-133.45
-137.83
-130.20
-111.26
-84.51
-55.70
-31.35
-16.48
-12.44
-15.96
-20.54
-19.53
-9.62
7.36
25.43
37.76
40.41
34.35
24.69
17.56
16.70
21.69
28.69
33.00
31.73
24.99
15.16
5.17
-3.21
-9.94
-16.02
-22.14
-27.53
-29.70
-25.43
-12.40
9.35
36.93
65.31
89.05
103.99
108.48
103.62
92.55
79.21
67.31
59.59
57.90
63.31
76.22
96.07
121.13
148.46
174.21
194.08
203.80
199.78
179.87
144.04
95.03
38.15
-19.50
-70.69
-109.63
-133.23
-141.00
-134.57
-117.06
-92.94
-67.73
-47.31
-36.28
-36.17
-44.87
-57.74
-70.21
-80.21
-88.67
-97.99
-109.24
-120.46
-127.09
-124.47
-110.32
-85.74
-53.96
-18.46
18.08
52.95
82.12
99.65
99.35
77.95
37.66
-13.42
-64.00
-103.99
-128.20
-137.33
-136.14
-130.18
-123.09
-115.72
-107.19
-96.70
-84.88
-73.67
-65.10
-59.62
-55.27
-48.26
-34.73
-12.71
16.73
49.75
81.38
107.73
127.59
142.99
158.45
179.18
208.94
248.12
292.89
335.73
367.44
380.09
369.75
337.96
291.00
237.40
184.84
137.90
97.49
61.94
28.88
-3.31
-35.01
-65.77
-94.98
-122.39
-148.20
-172.89
-196.96
-220.69
-243.89
-265.96
-285.83
-302.24
-313.89
-319.61
-318.41
-309.54
-292.63
-268.00
-236.91
-201.62
-165.11
-130.50
-100.48
-76.83
-60.27
-50.79
-47.89
-50.86
-58.88
-70.72
-84.59
-98.04
-108.34
-113.04
-110.69
-101.25
-85.98
-66.91
-46.14
-25.19
-4.85
14.67
33.24
50.27
64.57
74.80
80.16
81.12
79.52
77.88
78.20
80.89
84.62
87.11
86.66
83.32
79.15
77.18
79.70
86.98
96.92
105.95
110.42
107.93
97.80
80.95
59.24
34.72
9.12
-16.43
-41.47
-66.15
-91.17
-117.48
-145.67
-175.32
-204.51
-229.71
-246.63
-251.41
-241.91
-218.40
-183.44
-140.80
-94.37
-47.34
-2.08
39.66
76.60
107.90
133.21
152.62
166.54
175.53
180.44
182.74
184.53
187.96
193.87
200.44
203.17
196.89
178.81
151.09
121.02
98.24
90.73
101.81
129.74
170.13
218.67
272.72
330.57
389.55
444.54
488.44
514.58
519.54
504.73
475.84
440.46
405.34
374.29
347.50
322.39
295.17
262.79
224.39
181.63
137.80
96.23
58.66
24.50
-8.69
-43.90
-83.44
-128.16
-177.02
-227.86
-277.94
-324.46
-365.00
-397.91
-422.79
-440.45
-452.04
-457.67
-455.94
-444.19
-419.53
-380.16
-326.65
-262.44
-193.42
-126.66
-68.08
-22.23
8.05
21.66
19.41
3.53
-22.93
-56.82
-95.08
-132.25
-163.15
-184.06
-193.41
-191.59
-180.69
-164.54
-148.31
-137.55
-131.79
-129.19
-128.09
-127.41
-125.28
-118.44
-103.37
-78.11
-43.37
5.59
70.17
146.28
225.26
298.53
361.29
413.05
456.26
494.90
543.75
613.56
704.63
805.55
899.07
969.91
1009.37
1016.56
941.39
766.76
516.20
244.99
4.32
-182.82
-317.92
-412.99
-477.36
-527.14
-562.73
-581.93
-585.02
-575.52
-556.46
-527.92
-486.25
-432.08
-372.15
-308.79
-246.81
-193.09
-154.33
-132.94
-124.82
-122.11
-117.74
-107.90
-86.46
-51.05
-4.52
45.26
87.97
114.85
120.05
101.09
59.29
2.70
-59.37
-120.23
-178.13
-234.69
-290.06
-341.02
-381.26
-404.23
-404.69
-381.93
-340.42
-288.01
-232.71
-177.81
-122.62
-64.65
-2.81
62.15
128.98
197.49
268.89
332.32
375.63
391.70
383.68
359.45
323.74
276.97
219.25
154.27
90.23
39.33
11.11
7.77
21.84
39.75
48.49
40.93
17.25
-16.60
-48.87
-72.33
-82.61
-79.87
-68.19
-53.65
-42.59
-40.22
-48.71
-65.33
-83.71
-95.90
-96.22
-83.38
-60.38
-32.77
-7.90
7.58
13.79
17.06
24.60
38.47
54.17
64.40
64.49
55.32
45.81
44.37
55.51
76.78
99.32
112.22
108.35
87.62
55.47
21.13
-5.73
-19.26
-19.44
-9.01
7.11
24.08
38.49
46.93
47.47
40.52
27.25
9.17
-10.79
-28.50
-39.70
-35.52
-16.23
7.00
19.96
14.81
-6.07
-32.77
-54.39
-64.48
-62.41
-54.51
-52.39
-54.94
-57.41
-56.03
-49.34
-38.97
-29.00
-23.59
-28.50
-46.79
-77.43
-111.51
-144.70
-176.26
-208.32
-245.34
-276.16
-293.47
-294.82
-282.46
-260.75
-233.83
-204.42
-174.67
-148.06
-127.76
-118.35
-121.77
-135.37
-152.32
-163.98
-166.08
-150.38
-114.50
-62.63
-6.21
41.99
73.23
86.84
89.08
90.08
99.73
122.35
156.97
198.35
241.25
277.81
302.14
310.44
301.46
278.80
249.24
221.82
203.95
198.76
204.40
216.71
233.36
253.64
278.80
306.98
331.92
343.85
333.84
298.55
242.73
178.32
116.42
64.19
20.74
-19.89
-64.59
-117.37
-177.99
-243.57
-309.97
-378.09
-440.33
-488.28
-514.60
-515.21
-488.27
-432.99
-364.51
-285.73
-205.14
-134.52
-84.68
-59.07
-50.89
-49.28
-43.09
-25.35
7.54
54.73
113.53
177.03
234.48
272.72
280.57
254.82
202.95
142.71
93.56
69.02
69.94
85.94
101.57
104.16
89.14
62.37
30.36
-0.80
-27.60
-50.21
-70.11
-88.66
-106.23
-122.14
-135.42
-145.74
-151.46
-146.74
-127.10
-90.20
-38.11
22.39
81.73
131.21
164.34
180.97
185.16
181.95
175.53
168.22
161.03
154.39
151.74
148.84
142.84
132.52
118.71
103.94
90.59
79.32
68.20
53.61
29.08
-8.22
-55.45
-104.37
-143.96
-164.06
-158.26
-125.49
-65.13
11.76
88.48
147.58
175.81
167.45
124.54
55.21
-31.24
-115.40
-180.60
-221.46
-243.42
-254.62
-260.25
-261.81
-258.15
-246.88
-225.40
-194.58
-157.33
-117.39
-78.73
-44.66
-17.21
3.73
20.17
34.00
43.78
46.63
41.01
28.73
14.74
5.25
5.57
18.20
41.94
71.93
102.18
127.62
145.06
152.69
150.21
137.42
120.50
107.99
106.40
117.34
136.18
154.10
162.13
155.83
137.56
114.79
95.24
82.29
74.70
67.63
57.26
42.73
26.27
11.88
2.57
-1.49
-3.52
-6.65
-12.51
-20.10
-26.25
-27.01
-19.11
-2.17
21.37
46.04
66.58
79.25
82.76
78.08
67.81
54.88
40.36
31.26
28.13
29.26
32.45
36.64
42.56
45.73
50.09
58.62
72.11
87.97
102.37
111.33
111.11
97.90
76.17
48.15
15.79
-16.86
-44.43
-60.68
-61.44
-47.27
-23.63
1.64
21.22
32.20
37.33
42.05
51.35
66.65
85.64
104.36
119.98
131.14
138.56
143.96
148.14
150.75
150.89
147.86
142.27
136.12
130.44
126.27
124.47
125.00
126.58
127.05
124.40
117.86
108.22
93.85
74.99
54.26
35.25
20.22
8.79
-1.10
-11.78
-24.85
-47.99
-85.03
-133.84
-188.28
-243.06
-296.66
-350.37
-406.05
-464.39
-535.53
-623.37
-722.02
-818.61
-901.38
-964.61
-1008.08
-1034.73
-1049.10
-1070.83
-1112.62
-1173.01
-1237.92
-1290.46
-1318.96
-1319.21
-1293.87
-1159.03
-888.84
-525.00
-151.34
165.14
401.35
564.91
673.41
742.94
785.51
795.59
772.18
724.63
669.74
621.71
586.39
562.60
546.53
534.52
513.31
476.03
425.71
372.62
326.12
289.98
263.32
243.44
227.77
207.98
179.95
145.88
112.86
87.38
72.39
67.22
70.93
81.99
95.60
108.65
120.64
133.54
148.83
164.98
180.56
194.14
204.51
209.84
209.43
203.73
194.71
184.10
173.02
162.14
151.51
140.75
129.31
118.39
106.10
91.64
74.41
54.33
31.81
7.45
-18.01
-43.57
-68.14
-91.28
-110.60
-124.26
-131.51
-131.76
-124.91
-111.42
-92.20
-68.77
-42.73
-15.40
10.13
32.59
51.36
66.12
76.90
83.97
87.55
88.29
87.03
84.24
80.40
75.71
70.13
63.44
57.01
49.24
39.55
27.87
14.32
-0.57
-16.18
-31.88
-47.05
-61.16
-74.09
-85.27
-94.35
-101.24
-105.93
-108.65
-109.84
-110.08
-110.04
-110.60
-111.91
-114.04
-116.92
-120.29
-123.96
-127.83
-132.03
-136.93
-143.14
-150.53
-158.82
-167.38
-175.26
-181.43
-185.06
-185.53
-182.37
-177.64
-171.97
-165.32
-156.97
-145.80
-130.79
-111.61
-88.96
-64.48
-40.32
-17.73
3.00
22.87
43.70
67.25
94.13
123.26
152.11
177.47
197.14
210.48
218.92
225.55
234.40
249.37
273.13
305.68
343.40
379.24
403.83
408.38
387.69
342.23
278.02
204.18
129.39
58.87
-6.58
-69.88
-135.22
-205.47
-280.32
-355.70
-424.64
-479.12
-512.44
-521.08
-505.62
-470.14
-420.46
-362.38
-300.67
-238.89
-179.74
-125.24
-76.39
-32.71
7.98
48.65
91.28
135.25
177.09
211.59
234.09
242.66
239.18
228.81
218.30
214.13
220.66
238.77
265.12
292.36
310.38
308.75
280.10
223.24
144.43
55.58
-29.98
-102.34
-157.69
-197.62
-225.78
-244.19
-251.75
-245.55
-223.80
-188.17
-143.74
-96.56
-50.55
-5.77
41.47
96.05
161.18
236.34
316.83
394.91
461.67
509.59
534.70
537.60
522.63
495.91
462.83
426.26
386.35
341.74
291.29
235.12
174.62
111.24
45.31
-24.56
-100.75
-184.57
-273.96
-362.10
-438.11
-489.94
-508.52
-491.23
-443.01
-374.62
-298.45
-224.54
-158.19
-100.33
-49.47
-3.98
36.91
73.35
105.95
136.18
165.60
194.28
219.47
235.95
237.58
219.97
182.60
129.15
65.85
-1.34
-69.09
-136.89
-204.78
-270.91
-330.01
-374.27
-396.34
-392.70
-365.28
-320.62
-267.30
-213.53
-166.41
-132.25
-116.55
-122.85
-150.80
-194.68
-243.76
-284.97
-306.48
-302.10
-272.82
-225.50
-169.54
-113.19
-61.04
-13.69
31.11
78.15
131.06
191.29
258.14
329.75
403.47
475.17
538.13
583.11
603.66
595.55
559.28
501.04
432.09
365.97
314.55
284.66
277.15
293.31
330.94
384.77
446.79
507.94
560.25
598.50
620.79
628.37
630.80
635.61
644.46
652.13
650.33
632.86
599.22
554.32
466.38
323.74
135.51
-70.05
-261.27
-417.97
-534.86
-615.30
-666.06
-694.32
-699.82
-686.02
-659.32
-629.21
-605.27
-594.97
-600.69
-620.33
-648.64
-674.20
-683.72
-669.34
-630.59
-572.49
-503.88
-432.68
-364.61
-302.56
-244.08
-185.31
-124.33
-65.11
-6.24
47.74
91.71
119.98
128.29
117.86
95.97
72.42
56.03
52.10
60.11
76.78
98.33
122.99
151.91
188.21
231.29
275.52
311.93
331.33
330.50
313.68
290.82
262.79
232.01
197.16
153.20
94.98
22.10
-56.95
-128.14
-178.48
-202.20
-201.04
-185.86
-165.73
-145.67
-127.02
-109.00
-91.35
-75.82
-65.78
-63.16
-68.34
-79.05
-90.33
-97.06
-95.30
-83.77
-64.11
-40.10
-15.60
5.58
20.65
27.84
26.87
19.37
8.37
-2.90
-12.56
-20.72
-29.84
-42.98
-61.92
-85.72
-110.73
-132.39
-147.31
-154.51
-154.74
-149.24
-138.43
-121.87
-98.89
-69.56
-35.04
2.51
40.23
74.65
101.71
117.28
118.12
103.43
75.86
41.37
7.73
-17.53
-28.80
-23.07
0.06
38.37
86.66
136.55
177.35
198.44
192.90
160.52
108.51
49.09
-5.36
-47.23
-75.97
-96.83
-116.86
-140.89
-169.44
-199.57
-227.32
-249.95
-266.63
-277.34
-281.44
-276.90
-260.97
-231.80
-189.96
-139.18
-85.77
-37.26
-0.60
19.65
22.44
10.62
-9.95
-32.08
-49.53
-58.72
-59.68
-55.93
-53.60
-59.83
-80.55
-118.16
-169.70
-226.69
-276.89
-307.93
-311.74
-287.84
-244.19
-194.88
-154.92
-134.50
-135.09
-148.93
-162.54
-162.34
-139.70
-93.31
-28.10
48.01
127.07
202.35
267.97
318.34
348.86
358.13
349.88
333.07
319.16
317.61
331.87
357.92
385.93
404.50
405.37
386.51
352.47
311.95
273.94
244.59
226.26
218.06
217.70
222.44
228.64
230.91
222.19
195.63
148.10
82.89
9.68
-58.61
-110.50
-139.61
-145.63
-132.63
-106.46
-72.88
-37.11
-4.11
21.52
36.36
39.05
30.72
14.43
-5.94
-26.63
-44.65
-57.96
-65.75
-68.73
-69.28
-70.81
-76.39
-87.40
-102.95
-120.16
-135.35
-145.01
-146.51
-138.08
-119.12
-90.52
-55.18
-17.81
16.03
41.71
57.06
62.96
62.45
59.11
55.67
53.62
53.73
56.79
63.63
74.22
86.55
96.20
97.38
85.04
57.30
16.70
-30.25
-75.19
-110.76
-133.10
-142.75
-143.71
-141.25
-139.64
-140.96
-145.10
-150.78
-156.38
-160.17
-159.92
-152.77
-135.74
-107.23
-68.33
-23.07
22.80
63.87
96.90
121.25
137.72
147.10
149.40
144.22
132.02
115.00
96.91
81.61
71.29
65.34
60.53
52.77
39.28
20.42
0.19
-14.80
-17.56
-3.09
29.84
78.43
137.08
199.34
259.77
314.60
361.60
398.87
423.82
433.07
423.35
392.96
342.38
274.60
194.86
110.12
28.33
-42.97
-98.48
-136.84
-161.02
-178.08
-196.66
-223.26
-259.06
-299.07
-334.24
-355.31
-356.51
-336.24
-297.44
-245.57
-186.32
-124.28
-63.16
-6.96
39.46
71.50
88.26
92.91
91.75
91.87
98.08
110.87
126.17
137.61
132.63
105.65
59.68
3.79
-52.33
-102.78
-145.06
-177.67
-198.28
-203.78
-192.77
-166.24
-128.98
-87.70
-48.97
-17.04
6.63
23.24
36.36
51.09
70.18
93.90
120.60
147.21
170.68
188.25
194.66
186.84
164.59
134.89
100.65
63.00
21.80
-21.00
-63.21
-103.03
-138.80
-169.03
-192.30
-208.05
-215.42
-213.84
-203.40
-185.97
-164.66
-142.81
-123.55
-109.28
-102.05
-102.27
-108.88
-116.79
-121.23
-118.78
-108.34
-91.43
-70.88
-49.90
-30.42
-13.03
2.56
16.61
29.14
39.73
47.47
51.34
50.33
44.37
34.79
24.09
15.16
10.43
10.76
14.48
19.46
22.94
22.60
17.10
6.36
-7.99
-22.63
-33.23
-35.49
-26.45
-6.12
22.16
53.52
80.23
96.88
103.09
102.95
102.28
104.90
109.63
110.23
98.08
66.88
17.14
-42.38
-97.54
-133.90
-142.50
-123.32
-84.44
-37.98
4.54
35.31
51.76
52.97
39.08
11.82
-24.37
-61.99
-92.25
-108.15
-106.89
-90.83
-66.27
-40.18
-17.60
-0.63
11.31
20.22
28.33
37.53
48.89
61.98
74.56
82.95
82.95
71.46
48.10
15.42
-21.71
-57.79
-87.98
-108.92
-119.68
-121.31
-116.39
-107.76
-98.06
-89.42
-83.12
-79.46
-77.76
-76.59
-73.77
-67.49
-56.16
-39.16
-16.55
11.47
45.10
84.58
126.70
165.50
192.68
201.43
189.28
160.14
123.23
89.48
67.04
58.13
61.55
69.48
74.76
73.17
64.35
50.89
36.83
26.08
21.49
24.67
33.91
47.14
60.09
66.83
62.42
46.21
23.58
4.61
-0.65
11.85
37.62
64.23
77.35
67.94
36.61
-7.18
-50.31
-82.18
-98.14
-98.61
-87.13
-67.95
-45.00
-21.93
-2.05
12.80
23.22
33.61
51.35
82.98
130.48
189.11
248.67
297.17
325.27
327.84
306.55
268.74
224.29
181.99
146.86
119.48
97.19
76.08
50.29
16.06
-27.36
-77.97
-132.29
-187.05
-239.86
-289.35
-335.30
-381.66
-431.89
-486.95
-543.88
-596.70
-638.67
-664.23
-670.30
-637.07
-557.28
-438.26
-300.25
-166.10
-51.44
37.94
103.50
150.19
183.27
203.45
211.71
208.76
196.55
178.31
157.53
137.21
119.47
104.82
90.53
74.59
56.56
38.20
22.17
9.96
1.27
-5.47
-12.45
-21.72
-33.03
-44.36
-52.62
-55.29
-51.89
-43.49
-31.69
-18.71
-6.13
5.53
15.95
25.26
33.28
38.96
41.33
40.56
37.31
34.67
37.40
49.99
71.95
99.68
126.73
146.42
163.21
178.81
194.73
212.92
229.31
242.76
253.98
264.11
273.29
279.31
276.24
258.54
223.85
174.75
119.35
67.68
27.65
2.56
-8.97
-11.79
-9.62
-3.61
6.94
23.16
44.25
66.99
87.18
101.69
108.87
109.56
106.11
100.69
94.69
88.12
80.02
69.34
55.65
39.02
20.46
1.44
-16.62
-32.61
-46.09
-57.13
-65.99
-72.84
-77.70
-80.35
-80.64
-78.87
-75.76
-72.50
-70.28
-69.93
-71.63
-74.96
-79.02
-82.73
-85.27
-86.29
-86.10
-85.47
-85.28
-85.94
-87.01
-87.16
-84.67
-78.35
-68.30
-56.10
-44.42
-35.98
-32.47
-33.76
-37.96
-41.97
-42.48
-36.80
-23.57
-3.06
22.56
49.26
71.78
84.94
85.19
72.01
48.21
19.03
-9.43
-32.02
-45.68
-49.70
-45.41
-35.28
-22.22
-8.79
3.27
13.49
22.56
31.74
41.83
52.30
61.28
66.08
64.33
54.76
37.36
13.05
-16.76
-50.45
-86.31
-122.51
-157.48
-190.56
-222.50
-255.17
-289.99
-325.89
-358.03
-378.44
-378.76
-353.87
-304.64
-238.12
-165.14
-96.56
-39.77
2.86
33.18
55.19
72.65
87.81
101.20
112.36
120.80
126.55
130.44
133.94
138.66
145.67
155.06
165.92
176.71
186.08
193.35
198.68
202.58
205.20
205.68
202.07
191.92
173.19
145.15
108.80
66.60
21.83
-22.14
-62.34
-96.26
-121.98
-138.30
-145.06
-143.43
-135.70
-124.58
-112.31
-99.88
-87.12
-73.39
-58.58
-43.78
-31.07
-22.70
-19.96
-22.48
-28.30
-34.74
-39.52
-41.62
-41.42
-40.14
-39.01
-38.49
-38.26
-37.57
-35.79
-32.65
-27.92
-20.91
-10.28
5.40
26.72
52.45
79.54
103.99
122.37
133.04
136.40
134.33
128.95
121.75
113.20
103.15
91.31
77.84
63.42
49.19
36.31
25.64
17.44
11.26
6.18
1.10
-4.80
-11.85
-19.85
-28.36
-36.89
-45.06
-52.56
-59.02
-64.06
-67.29
-68.58
-68.10
-66.29
-63.75
-61.02
-58.48
-56.26
-54.31
-52.46
-50.52
-48.30
-45.67
-42.57
-39.10
-35.48
-32.06
-29.25
-27.46
-26.98
-27.94
-30.27
-33.69
-37.76
-41.91
-45.53
-47.92
-48.46
-46.62
-42.23
-35.60
-27.63
-19.72
-13.51
-10.42
-11.33
-16.21
-24.12
-33.46
-42.32
-48.97
-52.24
-51.73
-47.89
-41.78
-34.72
-27.82
-21.68
-16.16
-10.61
-4.21
3.57
12.64
22.22
31.01
37.59
40.81
40.16
35.92
29.16
21.47
14.46
9.24
5.94
3.45
-0.25
-7.39
-19.49
-36.69
-57.64
-80.08
-101.62
-120.48
-135.81
-147.50
-155.66
-160.06
-159.71
-153.06
-138.59
-115.68
-85.30
-50.24
-14.42
18.41
46.06
68.80
89.07
110.18
134.63
162.85
193.08
222.27
247.57
267.37
281.40
289.99
293.05
289.49
277.48
255.42
223.10
182.20
135.98
88.22
42.18
0.14
-36.44
-66.22
-87.53
-98.41
-97.42
-84.45
-61.19
-30.86
2.66
35.88
66.19
91.91
111.82
124.81
129.84
126.34
114.72
96.65
74.71
51.64
29.57
9.48
-8.74
-25.76
-42.14
-57.84
-72.02
-83.36
-90.52
-92.69
-89.94
-83.25
-74.28
-65.01
-57.28
-52.58
-51.78
-55.14
-62.25
-72.13
-83.32
-94.10
-102.72
-107.67
-107.77
-102.14
-90.23
-71.91
-47.84
-19.66
9.88
37.41
59.70
74.53
81.30
80.98
75.62
67.47
58.29
48.92
39.45
29.58
19.05
8.03
-2.98
-13.22
-21.98
-28.81
-33.63
-36.60
-38.00
-38.22
-37.71
-37.15
-37.45
-39.48
-43.36
-47.86
-50.19
-46.69
-34.34
-12.25
17.27
49.17
77.14
96.01
103.06
98.49
84.40
63.41
37.81
9.40
-19.75
-46.99
-69.29
-84.33
-91.78
-93.77
-94.43
-98.26
-108.33
-124.97
-145.74
-166.24
-182.21
-190.73
-190.85
-183.23
-169.09
-149.47
-124.82
-95.49
-61.31
-22.84
19.41
65.28
114.77
167.09
219.27
265.50
297.63
309.78
299.35
269.24
226.92
181.22
138.67
100.97
65.34
25.90
-19.62
-70.86
-123.41
-170.46
-205.45
-224.26
-226.45
-215.12
-197.18
-177.56
-161.57
-152.09
-148.94
-149.38
-149.53
-146.18
-129.32
-110.09
-88.48
-65.97
-43.28
-20.33
3.25
27.59
52.36
76.86
98.82
118.66
135.15
146.93
152.74
151.91
144.49
131.27
113.39
91.04
66.62
41.49
17.15
-4.88
-23.44
-37.99
-48.71
-56.38
-62.56
-66.94
-68.94
-66.77
-57.83
-39.45
-9.91
30.54
78.95
129.55
175.42
208.99
224.07
217.38
189.65
145.81
94.02
43.63
2.60
-24.18
-36.06
-35.78
-27.81
-16.58
-5.28
4.36
11.69
16.55
18.92
18.78
16.04
10.51
1.84
-10.24
-25.24
-41.39
-55.44
-63.14
-60.46
-44.90
-16.46
21.66
63.32
100.41
124.78
130.41
115.49
83.49
42.59
3.29
-25.23
-38.37
-37.43
-28.24
-17.99
-12.09
-12.43
-17.92
-26.44
-36.78
-49.27
-64.92
-84.06
-105.38
-126.21
-143.82
-156.46
-163.83
-166.35
-164.06
-156.10
-140.94
-116.88
-82.78
-38.68
13.65
70.23
124.99
170.54
200.06
209.50
199.17
173.94
141.47
109.40
82.80
63.10
48.75
37.26
27.22
19.19
15.31
17.84
27.80
44.08
63.71
82.77
97.47
105.26
105.32
98.71
88.01
76.89
69.54
69.89
80.43
100.93
127.50
152.55
166.47
160.60
130.64
78.96
14.44
-50.37
-103.53
-137.46
-150.61
-146.57
-131.62
-112.14
-93.16
-78.27
-70.20
-71.11
-82.17
-102.69
-129.32
-156.19
-176.12
-182.49
-171.23
-142.03
-98.64
-47.97
1.55
42.11
68.25
77.66
70.98
50.93
21.10
-14.76
-53.07
-90.45
-123.61
-149.70
-166.87
-174.92
-175.40
-171.21
-165.33
-159.55
-153.55
-145.08
-131.07
-109.27
-79.53
-44.20
-7.42
26.28
53.33
71.93
81.96
84.54
81.56
75.58
69.77
67.51
71.75
84.04
104.07
130.05
159.87
192.20
226.62
262.40
296.84
324.45
337.98
331.22
301.86
252.90
191.47
125.71
61.64
1.71
-54.29
-106.80
-154.43
-193.73
-220.79
-233.58
-233.47
-224.87
-213.38
-203.61
-197.83
-195.87
-195.87
-195.22
-191.13
-181.07
-163.20
-137.11
-104.58
-69.66
-37.65
-13.12
1.94
8.92
11.78
15.27
23.04
36.75
56.23
80.19
106.97
134.69
161.31
184.69
203.04
215.41
221.98
223.72
221.75
216.77
208.85
197.84
183.85
167.45
149.55
130.96
112.02
92.48
71.61
48.55
22.72
-5.63
-35.27
-64.20
-90.14
-111.15
-126.02
-134.29
-136.02
-131.65
-121.98
-108.43
-93.05
-78.40
-66.95
-60.42
-59.49
-63.81
-72.46
-84.40
-98.72
-114.54
-130.90
-146.73
-160.80
-171.85
-178.63
-180.17
-176.21
-167.39
-154.97
-140.10
-123.15
-103.38
-79.55
-50.86
-17.67
18.42
55.39
91.66
126.39
158.77
186.91
207.29
215.48
207.79
183.13
144.07
96.50
48.14
6.75
-21.80
-34.77
-33.12
-21.14
-5.21
8.53
16.51
19.25
21.12
28.29
45.68
74.40
110.84
147.71
176.63
191.32
189.76
174.80
152.72
130.39
112.66
100.89
93.15
85.70
74.92
58.66
36.49
9.03
-22.89
-58.17
-94.91
-129.76
-158.32
-176.64
-182.98
-178.69
-167.49
-154.10
-142.03
-132.70
-125.46
-118.80
-111.62
-103.88
-96.17
-89.04
-82.91
-77.85
-73.94
-71.32
-69.89
-68.93
-67.00
-62.08
-51.16
-33.27
-10.18
13.68
33.24
45.47
51.62
55.73
63.09
78.50
103.71
137.30
174.39
207.75
229.92
235.57
223.10
195.20
157.69
117.10
78.52
44.23
13.82
-14.59
-42.82
-71.58
-99.91
-125.62
-146.23
-159.37
-163.19
-156.32
-137.97
-108.42
-69.98
-27.41
12.46
42.23
56.38
53.38
36.48
12.58
-10.37
-26.24
-32.41
-29.63
-20.83
-9.45
1.77
10.93
16.68
17.80
13.21
2.41
-14.21
-35.42
-59.50
-84.59
-108.58
-128.81
-142.17
-145.76
-137.91
-119.13
-91.93
-59.53
-24.20
13.58
54.42
98.24
142.63
182.55
211.92
226.08
223.77
207.35
181.37
150.27
116.99
82.64
47.41
11.73
-22.99
-54.56
-80.74
-100.03
-112.20
-118.20
-119.91
-119.60
-119.36
-120.33
-122.39
-124.03
-122.75
-115.74
-100.74
-76.82
-44.80
-7.33
31.60
67.42
96.20
115.42
124.47
124.39
117.20
105.17
90.40
74.82
60.44
49.53
44.13
45.22
51.99
61.76
70.74
75.30
73.33
64.75
51.25
35.15
18.35
1.80
-14.39
-30.36
-46.00
-60.59
-72.71
-80.34
-81.07
-72.63
-53.69
-25.06
9.73
44.60
72.50
87.73
87.89
74.61
52.54
27.32
3.53
-16.27
-31.41
-42.20
-49.27
-53.33
-55.29
-56.45
-58.19
-61.63
-67.18
-74.58
-83.16
-92.15
-100.54
-106.81
-108.78
-103.92
-90.24
-67.09
-35.52
1.90
41.91
81.18
116.70
145.64
165.28
173.31
168.51
151.47
124.92
93.30
61.76
34.77
15.13
3.35
-2.10
-4.00
-5.32
-8.18
-13.16
-19.28
-24.40
-26.08
-22.28
-12.08
3.85
22.98
41.01
52.74
53.65
41.62
17.98
-12.71
-44.34
-71.67
-92.12
-106.07
-115.69
-122.81
-127.36
-127.14
-119.02
-100.54
-71.07
-31.97
13.76
61.89
107.20
143.86
166.32
170.81
156.65
126.92
87.74
46.42
9.33
-19.58
-39.13
-50.19
-54.40
-53.25
-47.71
-38.48
-26.31
-12.29
2.14
15.29
25.52
31.63
33.03
29.77
22.33
11.15
-3.49
-21.51
-42.64
-66.06
-90.21
-112.91
-131.82
-145.02
-151.47
-151.20
-145.13
-134.58
-120.84
-104.98
-87.82
-70.09
-52.58
-36.10
-21.33
-8.64
1.91
10.40
16.79
20.88
22.45
21.67
19.54
18.01
19.65
26.96
41.42
62.83
89.03
116.32
140.30
156.96
163.58
159.23
144.74
122.15
94.10
63.26
32.15
3.25
-20.66
-36.50
-41.15
-32.30
-9.50
25.07
66.54
108.01
142.06
162.53
165.95
152.28
124.58
87.83
47.44
7.90
-27.88
-58.37
-82.82
-100.79
-112.04
-116.85
-116.46
-113.11
-109.47
-107.79
-109.09
-112.91
-117.87
-122.51
-126.04
-128.58
-130.88
-133.84
-137.86
-142.53
-146.54
-148.07
-145.31
-137.02
-122.69
-102.89
-78.93
-52.50
-24.94
2.95
30.75
57.90
83.31
105.84
124.10
136.55
141.69
138.71
127.99
111.25
91.14
70.44
51.90
36.58
22.80
6.66
-15.73
-45.24
-78.07
-106.40
-121.24
-114.34
-81.42
-23.97
50.89
132.49
209.37
271.41
311.38
319.47
291.74
234.38
163.47
97.59
48.80
19.36
4.61
-1.69
-4.21
-3.60
1.26
10.39
21.19
29.55
31.72
25.60
10.87
-11.74
-39.33
-67.76
-93.19
-112.72
-124.87
-129.14
-126.37
-115.20
-97.77
-77.53
-58.32
-43.70
-35.19
-31.57
-28.98
-23.01
-10.85
7.15
29.10
52.72
75.40
95.43
111.75
123.94
131.03
130.21
117.16
89.12
47.12
-4.79
-60.33
-117.00
-173.29
-228.02
-280.53
-330.55
-377.30
-412.28
-428.80
-422.14
-391.01
-337.58
-267.18
-186.74
-102.16
-16.19
71.43
160.38
245.83
315.56
355.13
355.56
319.24
260.00
197.18
147.73
119.53
110.67
112.30
114.59
111.43
101.72
88.15
74.74
64.51
57.81
53.04
48.36
40.80
28.61
10.95
-12.27
-39.87
-69.18
-96.49
-117.72
-129.53
-130.19
-119.52
-99.55
-73.83
-46.54
-21.43
-1.09
13.50
23.09
28.48
31.95
35.74
41.21
48.61
57.14
65.50
72.36
76.61
77.64
75.79
71.71
66.24
60.20
54.19
48.59
43.45
38.61
33.79
29.00
24.47
20.62
18.06
17.32
18.70
21.94
26.29
30.72
34.28
36.38
36.83
35.85
33.76
30.77
26.81
21.67
15.27
7.86
0.03
-7.51
-14.20
-19.83
-24.56
-28.63
-32.25
-35.38
-37.90
-39.61
-40.48
-40.57
-39.97
-38.74
-36.86
-34.31
-31.14
-27.50
-23.61
-19.74
-16.10
-12.80
-9.90
-7.47
-5.53
-4.15
-3.33
-2.92
-2.74
-2.59
-2.37
-2.15
-2.12
-2.44
-3.15
-4.18
-5.37
-6.61
-7.87
-9.15
-10.42
-11.54
-12.38
-12.90
-13.28
-13.84
-14.87
-16.37
-17.98
-19.03
-18.89
-17.24
-14.21
-10.36
-6.35
-2.82
-0.13
1.66
2.78
3.76
5.19
7.62
11.19
15.59
20.00
23.35
24.76
23.83
20.79
16.41
11.66
7.42
4.22
2.17
1.02
0.31
-0.43
-1.57
-3.27
-5.53
-8.21
-11.06
-13.76
-15.95
-17.31
-17.68
-17.17
-16.15
-15.22
-14.95
-15.58
-16.95
-18.52
-19.66
-19.85
-18.94
-17.15
-14.95
-12.88
-11.35
-10.56
-10.48
-10.95
-11.74
-12.75
-13.92
-15.31
-16.96
-18.85
-20.81
-22.57
-23.80
-24.29
-23.95
-22.90
-21.29
-19.23
-16.78
-13.92
-10.69
-7.29
-4.00
-1.15
1.03
2.49
3.30
3.57
3.41
2.85
1.91
0.69
-0.58
-1.55
-1.93
-1.56
-0.46
1.23
3.29
5.56
7.96
10.44
12.78
14.72
16.05
16.71
16.77
16.34
15.66
14.88
14.20
13.72
13.57
13.85
14.66
15.98
17.62
19.26
20.54
21.23
21.15
20.39
19.34
18.59
18.64
19.64
21.53
23.90
26.47
28.43
29.32
29.24
28.97
29.46
31.18
34.44
38.75
43.90
48.50
51.64
53.46
55.47
59.56
66.85
77.99
91.45
105.14
114.25
114.10
101.91
78.28
46.08
8.27
-32.56
-77.25
-127.45
-187.20
-259.12
-342.51
-432.22
-520.92
-602.25
-670.73
-725.35
-742.10
-702.66
-605.04
-468.06
-319.49
-180.47
-68.38
25.61
110.07
189.85
264.64
332.68
389.92
434.67
467.87
491.32
508.02
518.40
512.79
485.51
437.62
376.58
312.76
254.02
203.14
160.27
122.85
89.83
62.28
42.08
30.89
29.40
35.87
44.95
48.91
38.26
6.64
-45.01
-107.96
-167.19
-206.14
-213.42
-188.20
-141.18
-91.37
-58.13
-52.85
-75.48
-115.64
-157.38
-185.96
-192.52
-175.68
-140.68
-95.81
-48.83
-6.23
27.00
47.39
53.71
48.12
36.46
26.75
26.00
37.05
56.11
74.97
85.58
84.04
72.00
54.69
37.82
25.12
18.38
18.69
27.82
47.93
79.48
119.72
162.41
199.24
221.78
223.47
201.03
155.46
92.07
19.55
-50.99
-108.12
-142.61
-149.51
-129.08
-86.20
-28.56
34.89
94.78
142.20
169.51
171.55
146.82
98.22
32.50
-41.16
-111.59
-169.45
-209.23
-229.90
-233.94
-225.82
-210.61
-192.73
-175.30
-159.88
-146.66
-134.55
-121.80
-106.77
-88.61
-67.74
-45.75
-24.92
-7.63
4.12
9.44
9.05
5.40
2.25
3.73
13.08
31.46
57.34
86.57
113.61
133.09
141.33
137.12
121.77
98.36
70.73
42.82
18.30
0.39
-8.60
-8.04
0.18
11.76
20.81
21.23
8.59
-18.46
-57.41
-102.03
-143.62
-173.09
-183.21
-170.83
-138.30
-92.93
-44.76
-3.20
25.94
41.73
46.14
42.73
35.79
28.73
22.86
17.18
10.26
2.01
-5.23
-8.58
-5.62
4.78
22.00
43.94
66.89
86.40
96.85
94.04
76.51
46.63
10.29
-26.51
-57.12
-78.40
-92.05
-102.54
-113.01
-121.69
-123.55
-114.03
-92.20
-61.07
-26.92
4.20
29.50
50.18
69.94
92.12
118.02
146.64
175.60
201.72
221.90
233.38
233.57
220.60
193.92
155.01
107.28
55.18
2.86
-45.66
-86.30
-114.93
-127.85
-123.06
-101.37
-66.71
-25.47
14.70
47.25
67.85
74.58
68.05
51.03
28.06
4.89
-12.70
-20.80
-18.97
-9.09
3.89
13.75
15.86
9.65
-0.91
-7.94
-6.89
3.11
19.03
34.63
43.08
39.53
21.62
-9.60
-48.08
-85.24
-112.65
-125.97
-126.37
-118.38
-106.73
-94.23
-81.66
-68.80
-56.12
-44.11
-32.80
-21.85
-10.17
3.61
20.74
41.67
65.74
88.57
106.13
115.11
113.46
101.35
81.36
58.27
37.91
26.59
26.77
38.05
56.52
75.01
85.09
79.94
56.86
18.25
-29.45
-78.76
-123.51
-159.65
-185.71
-201.86
-208.46
-205.34
-192.32
-170.37
-142.42
-112.57
-85.15
-63.63
-49.69
-43.27
-42.83
-46.15
-50.67
-53.75
-52.63
-45.20
-30.92
-11.34
9.86
27.88
38.42
39.44
32.35
22.07
15.50
19.04
35.83
64.15
97.56
127.18
144.83
146.18
131.78
106.11
75.14
43.93
15.70
-7.26
-21.98
-24.22
-9.74
22.80
69.24
119.62
161.11
182.82
180.07
155.79
118.44
77.89
41.27
11.18
-13.52
-35.24
-55.47
-73.91
-89.26
-100.62
-108.36
-113.92
-118.89
-123.87
-128.14
-129.95
-127.41
-119.53
-106.52
-89.56
-70.13
-49.29
-27.35
-4.19
20.12
44.86
68.64
89.89
107.77
122.49
135.10
146.76
157.98
168.53
177.96
186.32
194.26
202.32
209.63
213.09
207.59
187.83
150.69
97.09
32.29
-35.57
-98.04
-148.94
-185.62
-209.01
-222.24
-228.74
-230.75
-228.77
-221.87
-208.54
-187.54
-158.35
-121.73
-80.18
-38.02
-0.99
25.04
35.95
30.88
12.76
-12.62
-39.07
-62.40
-81.52
-97.81
-113.42
-129.17
-144.09
-155.99
-162.37
-162.26
-156.81
-148.47
-139.66
-131.76
-124.16
-115.33
-103.85
-87.95
-67.29
-43.19
-18.25
4.50
22.15
33.71
39.57
41.09
42.09
45.89
54.36
68.06
87.53
113.78
150.07
199.30
262.14
338.55
424.89
513.84
595.51
659.34
695.31
698.24
667.64
593.13
477.57
336.69
194.19
71.20
-17.01
-78.13
-124.52
-165.89
-206.87
-245.37
-276.93
-298.29
-309.14
-311.73
-310.35
-307.53
-304.96
-303.39
-300.30
-292.17
-275.87
-249.77
-214.23
-172.05
-126.25
-80.86
-40.55
-8.51
12.85
22.01
18.71
4.60
-16.83
-39.54
-57.31
-65.67
-62.46
-48.54
-27.00
-1.70
23.99
47.71
68.48
85.77
98.77
106.71
109.16
106.35
99.41
89.82
78.90
67.44
55.32
41.61
25.63
7.91
-9.98
-25.04
-35.17
-40.67
-43.80
-45.80
-45.60
-40.57
-28.68
-11.36
5.59
14.04
7.93
-12.88
-41.73
-68.74
-86.13
-92.23
-91.93
-93.25
-102.45
-120.44
-142.41
-160.31
-166.51
-156.49
-129.29
-86.54
-31.15
33.13
101.85
169.31
228.76
273.44
298.23
301.32
284.79
253.91
215.29
174.73
135.73
99.03
63.31
26.51
-12.54
-53.27
-93.05
-127.70
-152.58
-164.02
-160.42
-143.00
-115.54
-83.49
-52.70
-28.09
-12.76
-7.74
-12.22
-24.28
-41.66
-62.33
-84.58
-106.47
-125.38
-137.75
-139.32
-126.23
-96.52
-51.36
4.56
64.02
119.05
162.72
190.30
199.35
189.26
160.87
116.63
61.13
1.33
-54.45
-98.59
-126.51
-138.11
-137.43
-130.54
-122.77
-116.76
-112.09
-106.52
-98.03
-86.22
-72.82
-60.93
-53.36
-50.99
-52.11
-52.72
-47.60
-32.04
-3.40
37.77
87.44
138.93
184.58
217.73
234.50
234.66
221.24
199.21
173.73
148.73
126.32
107.07
90.62
76.44
64.13
53.37
43.87
35.50
28.40
23.24
20.90
21.86
25.68
30.67
34.27
33.88
27.72
15.33
-2.62
-24.77
-49.41
-74.29
-96.39
-112.04
-118.00
-112.99
-98.85
-80.47
-64.17
-55.29
-56.33
-66.54
-83.10
-102.83
-123.60
-144.44
-164.78
-183.46
-198.45
-207.36
-208.48
-201.64
-188.26
-170.80
-151.73
-132.59
-113.56
-93.61
-71.27
-45.47
-16.36
14.46
44.42
71.13
93.70
113.51
133.89
158.75
190.56
228.70
269.02
304.93
329.48
337.76
328.25
302.78
265.31
220.35
171.72
122.33
74.47
30.14
-8.73
-40.60
-64.78
-81.66
-92.68
-99.74
-104.57
-108.01
-109.89
-109.43
-105.86
-99.20
-90.82
-83.15
-78.83
-79.48
-84.60
-91.43
-95.71
-93.04
-80.13
-55.42
-19.23
26.25
76.82
126.26
166.94
191.40
194.65
176.03
139.79
93.74
46.51
4.85
-27.92
-51.65
-67.91
-78.37
-84.07
-85.49
-83.22
-78.55
-73.23
-68.82
-66.04
-64.49
-63.07
-60.88
-57.80
-54.49
-51.74
-49.59
-46.84
-41.23
-30.50
-13.28
9.95
37.25
66.14
94.38
120.19
142.28
159.48
170.52
174.37
169.99
157.01
136.07
108.73
76.85
42.55
8.03
-24.55
-52.87
-75.70
-92.87
-105.06
-113.60
-120.36
-126.78
-133.43
-140.00
-145.19
-148.52
-150.19
-150.71
-146.92
-136.03
-116.30
-88.12
-57.14
-25.02
8.24
43.16
80.18
117.42
150.28
172.87
179.93
169.11
142.80
106.34
66.27
27.97
-5.99
-36.05
-63.76
-89.83
-113.08
-130.48
-139.50
-139.32
-130.94
-116.39
-97.50
-75.00
-48.62
-18.34
14.49
46.04
70.98
84.47
84.09
70.86
48.91
23.78
0.49
-17.89
-30.98
-40.48
-48.86
-58.23
-69.43
-81.82
-93.63
-102.64
-106.95
-105.60
-98.83
-87.79
-74.15
-59.44
-44.60
-29.85
-14.74
1.40
18.92
37.55
56.22
73.34
87.12
96.09
99.53
97.70
92.03
85.06
79.94
79.63
86.06
99.26
117.32
136.98
154.83
168.55
177.38
181.74
182.04
177.67
166.86
147.61
119.39
84.56
48.54
18.39
0.38
-2.48
8.41
27.71
48.25
63.49
69.39
64.87
51.07
30.10
4.11
-25.17
-56.14
-86.80
-114.44
-135.93
-148.51
-150.89
-144.03
-131.23
-117.30
-107.01
-103.47
-107.17
-116.22
-127.41
-137.64
-144.89
-148.28
-147.48
-141.96
-130.90
-113.53
-90.02
-61.92
-32.17
-4.35
18.32
33.76
41.54
42.86
40.07
36.12
33.75
34.70
39.16
45.70
51.65
54.31
52.24
46.12
38.81
34.43
36.86
48.53
69.97
100.28
137.77
180.03
223.24
261.42
286.66
290.89
268.66
219.68
149.41
67.61
-14.83
-88.97
-149.56
-195.00
-226.01
-243.99
-250.53
-247.63
-238.23
-226.26
-215.81
-209.94
-209.68
-213.72
-218.31
-219.38
-214.35
-203.30
-189.13
-176.35
-169.61
-172.24
-185.34
-206.39
-230.82
-252.99
-267.10
-267.96
-251.60
-216.27
-163.53
-98.73
-28.41
39.80
99.37
146.92
183.18
212.56
241.21
274.64
316.09
368.22
430.61
499.41
567.51
625.82
665.70
681.52
672.35
627.76
546.49
436.03
311.41
189.66
83.40
-1.86
-66.42
-113.55
-147.32
-169.30
-180.91
-183.95
-181.01
-175.00
-168.29
-162.24
-157.41
-153.84
-149.83
-144.04
-136.06
-126.60
-116.93
-108.18
-100.85
-94.96
-90.29
-85.59
-79.93
-73.08
-65.49
-57.98
-51.23
-45.48
-40.69
-36.65
-32.68
-28.31
-23.45
-18.37
-13.50
-9.18
-5.51
-2.38
0.41
3.23
6.41
10.05
14.08
18.27
22.34
25.99
28.85
30.53
30.44
28.28
23.80
16.98
8.10
-2.30
-13.29
-23.83
-32.73
-39.09
-42.08
-41.32
-36.81
-29.05
-19.08
-7.97
3.15
13.41
21.85
27.98
31.79
33.69
34.43
34.36
34.19
34.45
35.57
37.00
38.19
38.73
38.59
37.98
36.48
34.37
32.07
30.17
28.08
25.49
22.59
19.97
18.31
17.06
16.20
15.50
14.55
11.22
3.87
-8.15
-24.40
-38.69
-49.93
-57.27
-65.72
-74.91
-85.50
-97.83
-111.51
-125.27
-137.69
-149.09
-159.79
-164.03
-150.11
-115.06
-63.33
-4.83
50.90
98.03
134.13
161.38
180.51
192.16
196.71
194.38
184.87
169.04
148.18
122.65
94.04
58.48
15.12
-30.60
-71.18
-101.43
-119.09
-124.88
-133.16
-144.05
-159.94
-182.82
-215.01
-247.83
-276.88
-298.21
-308.85
-307.96
-277.62
-216.32
-135.10
-51.38
19.89
71.43
104.74
125.49
137.91
147.69
152.55
149.29
136.05
111.80
77.03
35.06
-7.07
-42.82
-66.49
-78.25
-79.73
-65.67
-37.75
-4.88
23.45
43.18
55.91
66.62
77.95
89.71
99.59
102.62
94.65
75.25
48.03
18.44
-8.19
-27.28
-31.88
-17.90
11.06
45.87
77.78
104.02
126.59
145.49
157.99
160.71
146.72
112.21
58.90
-6.67
-74.90
-136.83
-186.27
-219.75
-236.14
-237.94
-230.66
-218.16
-201.53
-178.86
-147.35
-105.44
-52.93
9.37
78.05
148.55
216.03
272.89
314.04
340.58
356.47
362.98
357.30
342.79
310.90
260.08
197.10
133.27
78.40
36.60
4.84
-20.43
-46.54
-81.15
-125.95
-178.36
-234.40
-291.54
-348.96
-405.19
-438.40
-430.71
-380.14
-300.66
-213.04
-133.88
-71.97
-29.16
-1.97
15.39
24.22
25.09
21.78
20.95
30.33
55.55
96.94
149.61
204.05
247.71
266.60
256.88
224.42
181.30
140.24
108.89
88.98
75.90
60.56
34.98
-3.63
-54.46
-113.82
-176.51
-237.31
-280.33
-289.51
-260.96
-206.91
-146.02
-93.49
-57.71
-32.00
-9.19
15.90
44.86
77.68
115.40
161.79
216.24
273.97
325.45
359.04
365.98
343.11
294.12
228.98
166.06
112.81
76.44
62.42
72.11
100.62
139.44
179.46
211.60
227.75
221.75
193.77
148.98
94.66
34.03
-30.68
-96.36
-158.58
-212.98
-257.34
-290.00
-311.00
-322.36
-332.80
-350.31
-378.45
-415.85
-458.68
-502.74
-542.23
-571.01
-551.94
-468.48
-335.13
-188.13
-59.70
36.30
100.66
141.39
166.93
183.23
188.54
181.84
167.22
152.90
146.34
148.92
157.11
163.33
159.75
138.53
99.30
50.68
6.10
-22.97
-32.29
-25.01
-9.17
6.57
13.14
5.29
-14.97
-43.44
-74.66
-103.73
-126.79
-141.59
-147.70
-147.94
-146.47
-146.71
-150.14
-155.39
-159.34
-158.79
-152.63
-142.53
-134.02
-134.38
-149.21
-179.86
-222.11
-267.89
-308.21
-336.19
-346.68
-338.78
-316.00
-284.64
-251.50
-221.55
-197.19
-178.40
-163.19
-144.36
-115.28
-73.06
-18.97
43.84
112.49
184.58
257.50
328.09
399.10
472.78
547.68
618.95
681.82
734.08
775.40
805.30
821.84
829.96
834.00
834.71
830.95
824.41
821.32
829.59
854.72
842.14
758.93
608.97
428.08
253.51
103.25
-21.62
-126.07
-214.44
-282.53
-330.34
-358.08
-369.59
-371.04
-365.84
-353.42
-332.35
-304.82
-277.40
-254.27
-240.70
-240.64
-253.81
-274.51
-295.01
-309.96
-318.76
-324.30
-325.87
-324.37
-322.21
-322.71
-328.16
-338.66
-351.57
-362.22
-365.90
-341.96
-284.56
-208.49
-139.79
-97.34
-85.23
-96.20
-118.27
-143.43
-160.30
-162.29
-146.70
-114.44
-70.59
-24.17
15.69
45.38
63.48
78.67
101.31
135.79
177.78
218.07
248.46
267.06
282.88
299.63
317.26
330.06
330.81
317.09
293.68
269.85
256.62
249.60
246.99
246.05
241.25
225.26
193.14
147.49
88.91
22.17
-45.78
-107.49
-158.95
-194.48
-214.45
-222.79
-224.85
-226.11
-229.75
-237.39
-247.89
-258.32
-264.33
-262.29
-250.08
-228.92
-204.74
-185.97
-181.59
-196.80
-231.48
-279.44
-330.69
-373.64
-398.42
-399.42
-374.97
-327.54
-261.33
-181.37
-91.55
5.86
109.41
216.03
318.64
407.25
470.62
501.02
495.78
458.55
397.89
324.32
247.47
174.33
110.73
60.84
27.69
10.40
3.82
0.15
-8.49
-27.26
-57.79
-96.97
-140.40
-175.56
-192.70
-192.27
-183.15
-172.96
-161.62
-150.96
-134.93
-110.97
-79.77
-45.38
-12.78
17.82
48.42
84.72
129.92
184.15
242.34
297.21
340.71
365.78
370.53
359.10
340.95
321.47
302.39
281.56
256.79
226.33
187.34
137.96
78.35
13.08
-55.73
-124.64
-188.06
-237.59
-252.53
-221.19
-152.49
-86.67
-39.89
-17.87
-16.64
-32.45
-59.15
-89.76
-119.98
-145.66
-161.28
-158.79
-137.10
-101.14
-60.27
-24.47
-1.82
2.12
-11.87
-36.36
-58.86
-71.61
-72.56
-64.66
-53.53
-45.95
-49.24
-67.53
-100.55
-143.23
-190.60
-237.11
-276.54
-303.78
-316.44
-315.61
-303.09
-279.83
-244.88
-198.46
-140.59
-70.85
9.55
106.79
214.47
315.27
390.48
430.83
435.60
410.96
367.40
319.20
268.22
215.69
165.04
120.16
84.15
55.17
29.13
3.30
-28.68
-73.18
-132.63
-204.35
-282.32
-358.22
-426.35
-480.57
-493.13
-449.26
-358.17
-247.87
-146.39
-76.30
-29.65
2.86
28.24
51.75
73.95
93.76
112.72
135.55
168.06
215.46
276.93
347.54
420.42
484.40
528.17
544.44
531.90
494.48
439.97
374.25
300.11
219.07
129.89
31.71
-72.81
-176.04
-266.93
-335.04
-376.76
-397.10
-403.77
-403.14
-396.31
-378.96
-344.65
-290.14
-219.46
-134.19
-51.55
7.66
34.65
38.41
35.57
37.77
46.65
56.96
61.69
55.47
39.29
19.44
3.70
-2.51
2.89
19.08
43.46
72.23
99.88
120.22
128.03
122.10
105.31
83.01
60.31
40.84
25.68
12.56
-1.62
-19.38
-41.67
-69.41
-103.09
-142.21
-183.27
-220.11
-245.37
-251.50
-232.40
-185.44
-112.93
-17.86
88.03
190.47
276.13
335.03
362.67
360.70
335.48
295.78
249.80
202.42
155.52
108.39
59.83
10.82
-33.58
-64.90
-74.67
-58.77
-20.93
28.31
74.73
105.50
113.61
99.84
70.81
34.85
-1.83
-37.11
-71.05
-103.62
-132.52
-153.28
-161.35
-154.52
-134.31
-105.83
-76.03
-51.07
-35.09
-28.64
-28.82
-30.24
-27.14
-15.70
4.39
29.33
52.47
65.48
62.01
40.04
2.27
-45.46
-96.36
-143.85
-181.97
-205.05
-209.58
-193.55
-157.35
-104.85
-44.09
13.94
58.58
82.80
85.24
67.55
34.85
-6.08
-48.66
-88.61
-124.57
-157.11
-187.40
-204.53
-200.89
-176.34
-139.15
-99.63
-64.39
-35.31
-11.23
7.64
23.40
32.92
30.88
13.27
-19.96
-64.74
-114.56
-160.44
-194.42
-211.14
-210.41
-194.33
-165.40
-126.37
-81.39
-36.47
1.77
28.49
43.08
48.37
50.51
57.05
73.67
102.28
141.31
187.11
235.60
282.48
322.43
349.76
360.45
351.84
323.44
277.74
220.13
158.87
102.70
58.63
31.07
22.78
32.46
55.21
84.29
112.94
137.37
155.99
168.71
176.25
181.11
183.82
182.78
175.80
161.42
141.78
120.37
100.52
71.87
31.90
-14.72
-59.61
-90.75
-109.52
-117.26
-114.94
-105.86
-94.11
-82.47
-73.58
-68.69
-68.51
-70.11
-68.23
-61.39
-52.93
-47.73
-44.97
-44.15
-45.85
-51.93
-65.34
-87.98
-121.10
-162.92
-208.00
-247.38
-266.77
-256.89
-220.55
-172.14
-128.00
-98.33
-84.26
-80.23
-79.10
-74.86
-65.73
-52.47
-35.80
-14.16
15.96
58.77
115.49
182.41
251.54
311.46
351.28
364.70
352.41
321.18
280.14
236.62
192.86
148.43
102.67
57.18
15.90
-17.45
-42.95
-65.99
-95.12
-137.86
-193.94
-254.16
-304.63
-333.77
-337.74
-321.19
-293.75
-253.78
-203.78
-148.85
-93.92
-42.16
3.75
40.51
65.18
76.82
77.54
73.07
68.95
70.82
82.34
103.47
130.61
158.12
180.65
187.48
173.67
142.11
101.96
63.82
35.23
18.58
11.12
6.57
-2.35
-21.22
-52.34
-93.58
-138.99
-180.60
-210.78
-224.23
-219.63
-193.59
-149.15
-94.70
-41.64
-1.28
18.65
16.16
-4.38
-34.02
-62.28
-79.66
-81.27
-67.63
-43.21
-13.91
15.18
41.09
63.71
85.43
110.96
142.81
178.74
211.91
233.70
237.19
220.11
185.78
133.16
72.31
18.57
-17.55
-35.89
-42.64
-43.94
-43.42
-43.08
-45.98
-54.04
-68.70
-89.95
-115.02
-138.36
-153.72
-155.05
-138.90
-110.73
-81.32
-61.21
-55.74
-63.22
-77.06
-90.10
-98.62
-101.45
-98.65
-88.70
-68.85
-37.98
2.69
51.45
107.38
169.52
235.20
298.99
353.90
393.32
410.20
399.88
362.35
301.58
222.99
131.51
32.09
-72.62
-165.50
-226.56
-245.94
-229.54
-193.95
-157.27
-131.66
-119.80
-117.05
-112.67
-99.84
-76.62
-43.74
-2.91
43.39
87.97
120.79
133.73
125.61
101.00
68.42
37.85
16.44
5.94
3.04
3.12
3.22
3.74
3.91
1.23
-6.91
-21.81
-42.02
-63.39
-79.29
-83.31
-71.98
-45.22
-11.73
18.09
37.26
43.56
37.31
19.96
-7.06
-41.55
-80.01
-117.72
-148.45
-167.05
-172.05
-166.85
-156.84
-146.77
-138.74
-132.41
-127.09
-122.99
-121.51
-120.65
-120.08
-119.00
-116.80
-113.40
-108.37
-101.00
-89.67
-71.73
-44.81
-9.74
29.51
67.19
98.76
124.20
147.13
165.34
178.90
188.61
192.64
185.80
161.90
118.46
61.78
2.92
-46.46
-78.29
-90.29
-82.78
-60.43
-31.85
-3.55
27.21
64.51
109.11
156.16
203.57
250.30
295.37
338.30
380.69
430.10
490.57
559.25
625.00
681.24
722.97
744.63
740.21
675.30
542.69
367.52
211.57
84.47
-19.51
-109.06
-188.19
-260.47
-327.60
-383.96
-424.65
-448.78
-462.27
-465.73
-458.68
-442.16
-419.40
-393.71
-363.86
-329.89
-295.05
-267.07
-247.88
-236.32
-229.98
-226.72
-224.63
-220.51
-214.19
-209.35
-213.13
-228.09
-252.85
-282.87
-311.99
-333.74
-342.01
-334.40
-313.07
-284.31
-253.71
-225.58
-202.45
-184.90
-171.93
-161.01
-149.00
-132.46
-108.66
-75.74
-34.37
11.43
55.02
89.08
107.89
109.54
96.97
77.51
60.91
56.57
70.89
105.87
158.04
219.33
279.70
330.12
364.49
380.13
376.81
355.51
319.16
270.23
210.24
140.32
62.28
-20.98
-105.44
-186.17
-257.44
-310.19
-338.08
-340.24
-320.76
-285.76
-240.77
-189.88
-136.38
-83.69
-30.71
21.27
68.08
106.09
136.47
165.87
202.73
253.05
318.12
401.38
499.88
603.53
698.31
771.61
816.38
831.53
821.24
750.52
613.27
435.97
261.02
117.04
9.12
-70.48
-131.58
-181.92
-226.86
-263.30
-290.34
-311.03
-328.96
-345.52
-358.66
-365.58
-365.52
-359.99
-346.21
-323.24
-293.40
-256.81
-216.99
-177.94
-144.66
-122.72
-116.33
-123.03
-137.74
-154.67
-167.77
-172.60
-165.69
-145.66
-113.41
-71.86
-24.45
22.70
61.31
84.44
87.66
72.19
44.34
13.53
-10.75
-21.40
-16.02
3.90
36.22
76.95
121.44
163.45
195.99
213.44
213.48
198.25
164.46
117.26
67.30
25.85
-3.03
-22.52
-37.52
-49.83
-59.36
-63.40
-57.19
-38.48
-7.10
34.08
78.21
118.30
148.60
164.77
164.44
148.51
111.55
57.50
-0.43
-46.32
-70.53
-74.27
-66.91
-60.58
-60.52
-67.04
-76.05
-83.63
-89.11
-95.32
-104.78
-115.82
-123.08
-118.20
-94.91
-52.55
1.48
53.64
91.65
108.25
101.69
75.60
37.20
-6.33
-49.18
-87.12
-116.06
-129.34
-123.12
-100.62
-71.65
-46.71
-31.65
-25.57
-22.83
-16.67
-3.13
15.79
34.63
47.06
48.52
37.89
14.99
-13.88
-38.84
-52.48
-53.73
-46.89
-37.26
-28.59
-19.78
-9.35
2.96
15.84
27.10
35.77
42.86
49.20
53.89
55.78
52.33
40.97
21.98
-1.14
-20.57
-31.30
-30.48
-18.08
3.66
30.93
56.71
75.31
79.27
65.91
40.17
12.20
-8.93
-19.51
-22.45
-26.46
-36.77
-53.75
-73.19
-89.21
-97.99
-98.41
-87.39
-63.06
-29.60
10.45
55.27
104.66
159.23
217.46
276.30
324.05
368.69
399.20
407.70
389.38
343.89
274.88
186.50
84.46
-20.48
-119.30
-210.55
-290.66
-354.81
-397.28
-398.25
-347.51
-275.84
-202.66
-131.99
-74.92
-38.29
-24.28
-29.68
-47.65
-71.75
-95.39
-108.74
-106.63
-91.57
-66.04
-32.96
4.89
43.56
76.00
94.77
97.50
83.46
53.25
13.10
-26.63
-52.53
-56.38
-41.55
-18.36
5.96
27.49
43.25
54.70
61.19
60.55
49.71
26.60
-8.28
-49.30
-89.18
-120.48
-130.86
-114.30
-76.16
-32.04
2.37
19.92
23.75
21.90
21.54
25.24
28.64
25.27
9.61
-19.01
-56.16
-94.46
-126.70
-147.54
-154.37
-148.13
-127.14
-93.71
-51.88
-7.19
34.07
66.01
84.86
90.31
85.05
74.45
64.36
60.32
64.87
75.99
87.32
90.84
80.97
57.94
29.51
8.13
6.65
32.18
82.19
144.94
203.79
243.53
255.44
239.44
202.19
153.56
102.77
55.86
15.66
-17.00
-41.95
-59.67
-72.17
-83.94
-101.09
-128.46
-166.35
-208.47
-243.21
-257.90
-243.76
-198.99
-128.72
-42.06
51.16
142.24
223.72
288.69
330.86
345.99
333.56
297.44
244.38
180.97
111.27
36.57
-42.00
-120.29
-188.92
-234.61
-244.51
-211.68
-139.13
-40.17
65.11
155.76
215.57
236.61
219.61
172.19
106.21
34.76
-30.23
-79.92
-109.95
-120.84
-117.29
-106.46
-95.78
-91.01
-94.99
-107.55
-125.91
-145.73
-162.08
-170.63
-168.71
-155.98
-134.44
-107.50
-78.62
-49.88
-21.41
8.25
40.81
76.56
113.09
145.32
167.04
173.27
162.57
137.76
104.93
70.91
40.81
16.69
-2.15
-17.64
-31.40
-44.04
-55.64
-66.56
-77.89
-91.17
-107.31
-125.67
-143.86
-158.54
-166.63
-166.59
-158.94
-145.82
-130.04
-114.01
-99.09
-85.48
-72.81
-60.48
-48.12
-35.62
-23.03
-10.44
2.04
14.38
26.71
39.48
53.60
70.38
91.22
116.89
146.81
178.61
208.26
230.89
242.17
239.46
222.56
193.79
157.20
117.38
78.35
42.86
12.33
-12.80
-32.57
-47.16
-56.74
-61.52
-61.82
-58.09
-50.88
-40.78
-28.69
-16.19
-5.76
-0.27
-1.82
-10.40
-23.40
-36.20
-43.93
-43.53
-35.04
-21.58
-8.04
0.71
1.41
-6.88
-22.87
-43.77
-66.01
-86.04
-101.01
-109.40
-111.34
-108.42
-103.05
-97.46
-93.01
-89.76
-86.62
-81.94
-74.34
-63.42
-49.99
-35.90
-23.22
-13.60
-7.57
-4.38
-2.29
0.67
5.85
13.19
20.99
26.51
27.10
21.46
10.46
-3.00
-15.01
-22.12
-22.55
-16.56
-5.67
8.37
24.38
42.06
61.75
83.90
108.49
134.18
157.88
175.39
182.09
174.04
149.51
109.56
57.86
-0.46
-61.00
-121.66
-181.89
-241.92
-301.27
-357.09
-403.89
-434.94
-444.23
-429.61
-393.75
-341.61
-278.40
-207.83
-130.84
-47.06
42.26
132.29
213.19
272.47
301.43
298.33
269.10
225.98
183.51
148.99
129.13
128.57
141.15
158.59
175.73
189.85
200.29
207.02
209.91
208.75
203.20
193.29
181.60
170.33
158.23
141.08
113.63
72.97
19.96
-41.16
-104.30
-158.91
-192.35
-198.71
-182.11
-152.84
-119.61
-91.50
-68.03
-46.67
-23.40
5.61
42.39
87.31
138.02
190.81
239.09
268.89
268.63
238.39
190.68
141.74
106.18
83.06
68.43
57.65
46.77
33.23
15.18
-9.84
-44.84
-90.56
-143.39
-193.80
-230.58
-244.55
-230.91
-191.27
-133.84
-71.81
-19.43
11.59
15.73
-6.94
-51.40
-108.54
-167.65
-219.36
-257.59
-279.39
-284.36
-273.34
-248.85
-215.19
-176.50
-136.51
-98.32
-63.87
-32.89
-3.73
25.33
53.89
78.46
95.53
102.51
98.51
85.26
68.22
54.60
49.94
55.46
65.87
74.10
75.11
68.35
56.19
43.96
38.38
45.40
68.25
106.38
158.12
218.99
279.75
320.54
323.73
285.36
218.72
154.18
103.43
69.15
48.93
34.99
19.43
-2.87
-33.48
-72.34
-119.53
-175.48
-237.41
-290.45
-316.98
-307.13
-264.92
-204.71
-142.87
-95.46
-61.47
-33.73
-4.27
30.29
66.53
95.70
109.28
99.05
61.43
0.42
-71.80
-138.63
-185.22
-202.03
-185.99
-139.54
-69.86
12.21
94.98
168.63
225.59
260.76
272.39
262.22
234.65
194.33
144.24
86.76
26.21
-32.09
-82.31
-119.23
-140.18
-145.76
-134.87
-111.68
-91.52
-78.36
-67.32
-53.19
-32.13
-2.58
35.80
81.55
131.63
178.15
210.36
218.26
200.39
164.88
123.58
86.76
58.27
36.69
18.86
4.58
-6.30
-13.76
-19.75
-28.19
-43.39
-71.05
-114.94
-169.39
-222.54
-260.81
-273.48
-257.09
-222.42
-174.88
-121.58
-69.30
-22.47
17.11
48.81
72.38
87.67
98.49
112.20
131.25
155.37
180.94
202.66
215.00
221.81
222.03
216.01
206.34
194.80
178.58
157.19
131.14
99.13
59.01
8.06
-53.54
-123.04
-196.84
-269.07
-332.69
-366.56
-354.25
-295.87
-211.48
-127.02
-60.70
-22.45
-2.56
11.00
27.61
49.68
73.94
94.38
105.28
104.08
91.79
73.65
55.89
43.46
36.86
33.02
26.64
14.02
-5.55
-30.89
-59.32
-88.28
-115.01
-136.24
-147.80
-146.77
-131.87
-104.22
-67.99
-28.58
12.97
51.64
81.02
102.59
118.89
129.45
133.32
128.73
115.38
95.20
72.23
51.61
38.09
32.88
33.54
35.37
33.06
23.58
6.85
-15.06
-39.74
-64.27
-86.14
-102.60
-110.64
-108.07
-94.20
-71.55
-46.28
-28.13
-25.50
-42.14
-74.94
-115.50
-153.50
-180.09
-190.98
-176.49
-137.37
-85.67
-37.61
-2.65
19.32
32.23
43.10
56.05
72.26
88.91
102.26
108.37
104.33
88.91
62.79
28.57
-10.67
-51.93
-93.43
-131.84
-160.99
-173.05
-162.50
-129.52
-81.08
-29.31
13.12
36.73
38.75
22.77
-4.37
-36.65
-70.48
-103.87
-134.44
-157.77
-168.27
-160.69
-132.36
-84.83
-24.13
41.01
101.35
149.27
179.95
191.80
186.34
167.65
141.12
112.36
86.50
67.00
55.21
50.51
51.11
55.09
60.99
67.77
75.11
84.11
95.64
109.38
123.06
132.99
135.35
127.35
107.45
77.07
41.72
8.54
-16.02
-28.67
-30.00
-23.52
-14.00
-6.66
-3.51
-1.42
5.16
21.57
50.28
91.08
142.83
204.77
275.16
335.17
363.53
345.69
284.27
195.80
99.68
10.86
-56.38
-107.76
-150.04
-186.62
-218.31
-243.74
-261.17
-268.42
-263.74
-247.46
-223.92
-197.58
-170.59
-142.50
-110.59
-72.74
-29.94
13.05
49.03
70.77
76.77
72.45
67.44
71.28
88.64
117.32
149.73
176.70
191.02
190.95
179.43
161.23
140.70
119.82
98.00
73.12
43.32
8.07
-30.86
-70.61
-108.46
-141.90
-169.19
-189.46
-203.07
-211.09
-214.65
-214.57
-211.58
-205.86
-195.74
-178.47
-150.86
-111.26
-60.11
0.10
64.91
128.20
178.14
201.25
191.37
156.44
112.53
73.80
47.64
34.65
30.89
30.86
31.25
28.39
20.09
4.68
-18.19
-46.28
-74.74
-97.48
-109.63
-103.03
-78.35
-44.24
-13.73
3.22
4.37
-5.23
-17.13
-24.14
-23.04
-18.02
-14.39
-17.44
-30.13
-52.03
-79.47
-106.82
-128.32
-134.95
-123.76
-96.42
-59.28
-19.46
18.04
51.08
79.57
104.05
127.40
147.37
162.10
169.34
167.74
157.26
139.43
117.24
94.71
75.82
58.35
44.76
35.41
28.60
21.82
13.92
5.84
-0.22
-2.05
0.70
8.91
22.93
43.08
68.29
95.31
118.74
132.72
133.35
120.07
96.94
68.31
40.30
16.62
-3.16
-22.59
-45.35
-71.84
-97.93
-115.99
-119.31
-104.79
-74.36
-33.57
10.94
52.83
86.89
108.49
113.36
97.81
60.76
5.11
-62.05
-131.28
-194.43
-246.13
-283.88
-306.80
-314.68
-307.09
-283.86
-245.97
-196.33
-141.24
-88.16
-43.37
-10.40
10.21
20.24
22.83
21.21
17.73
11.64
1.00
-15.07
-35.13
-56.34
-75.56
-90.40
-99.97
-95.74
-74.97
-43.19
-11.07
13.52
28.92
38.30
46.40
57.25
72.02
89.19
105.13
116.04
119.60
114.33
100.06
78.69
52.95
29.91
15.54
10.98
10.25
7.70
-0.25
-13.90
-30.28
-42.96
-45.16
-33.37
-8.53
25.04
61.67
95.33
120.95
134.89
134.91
119.98
89.97
47.19
-2.05
-47.89
-80.26
-92.74
-85.07
-63.00
-35.78
-12.96
-0.91
-1.13
-10.80
-25.37
-40.73
-54.41
-65.37
-73.28
-77.74
-78.03
-73.23
-62.75
-46.99
-27.28
-5.38
17.30
40.05
62.64
84.69
104.94
121.20
130.91
132.26
125.09
111.29
94.09
76.92
62.38
51.54
44.07
38.61
33.39
26.75
17.52
5.38
-9.15
-24.67
-39.50
-52.23
-62.29
-70.12
-77.03
-84.62
-94.39
-107.27
-123.40
-142.03
-161.49
-179.54
-193.92
-203.05
-206.23
-203.28
-193.97
-177.44
-152.14
-116.44
-69.93
-14.39
45.74
103.97
153.39
188.20
205.06
203.92
188.48
165.68
144.54
133.54
137.71
156.65
183.90
208.58
219.02
207.00
170.26
113.16
44.31
-26.21
-87.86
-132.21
-154.46
-154.50
-136.78
-109.80
-82.80
-64.56
-61.39
-73.04
-95.10
-121.68
-147.61
-168.50
-181.33
-181.39
-165.90
-135.39
-89.93
-31.82
33.52
98.33
155.34
198.40
227.94
246.19
255.68
264.07
279.50
307.06
347.32
398.13
454.94
517.78
585.02
620.20
592.65
495.37
352.67
201.93
86.86
4.38
-54.20
-98.42
-136.98
-174.15
-208.69
-237.98
-260.28
-274.66
-282.51
-280.74
-268.22
-245.91
-213.28
-168.75
-111.94
-46.21
20.15
74.06
106.17
109.46
82.45
30.17
-36.67
-106.21
-169.55
-223.83
-270.91
-310.79
-343.22
-351.69
-324.06
-261.08
-177.73
-93.33
-23.46
20.73
44.28
53.93
55.89
52.05
42.36
27.01
5.88
-23.10
-60.38
-103.74
-149.08
-190.03
-223.34
-245.64
-254.16
-235.60
-188.41
-123.92
-62.74
-21.68
-5.53
-13.11
-35.09
-59.36
-74.79
-78.47
-69.29
-52.08
-33.66
-20.06
-21.96
-43.90
-84.66
-136.95
-191.19
-232.54
-250.10
-236.21
-187.81
-115.07
-28.43
62.15
150.37
222.88
293.73
363.70
416.34
474.22
528.02
569.28
588.77
579.27
536.76
463.55
362.71
243.61
122.46
11.76
-73.54
-122.39
-129.44
-96.34
-29.51
51.06
122.21
166.87
175.70
152.68
105.97
45.33
-18.11
-71.73
-106.55
-117.51
-105.38
-79.69
-51.34
-29.53
-17.05
-10.67
-4.61
3.91
16.30
29.59
40.01
45.69
45.45
39.40
28.24
12.87
-5.83
-25.97
-45.39
-62.26
-76.60
-91.51
-109.00
-127.81
-144.21
-154.74
-158.32
-157.08
-157.66
-160.88
-165.84
-169.52
-167.94
-158.17
-139.04
-111.10
-76.36
-37.69
1.82
38.60
70.07
94.89
111.76
119.94
119.54
111.48
98.43
84.81
75.54
75.03
85.59
104.21
124.92
141.95
151.85
154.24
150.90
144.45
135.99
124.53
104.03
68.94
18.45
-42.65
-106.46
-165.24
-212.52
-245.15
-262.53
-271.01
-278.78
-291.91
-313.47
-343.95
-381.76
-420.85
-453.44
-447.71
-388.11
-285.79
-170.70
-70.83
0.13
36.53
48.30
43.30
27.94
4.72
-22.73
-42.99
-43.79
-15.07
37.01
94.88
140.37
167.98
181.81
190.21
200.74
214.89
228.83
236.90
238.48
236.64
235.98
241.21
244.89
240.26
223.41
195.57
162.03
132.40
115.19
115.14
130.03
151.79
172.15
183.87
184.59
169.70
141.52
104.41
63.18
21.11
-20.22
-58.48
-92.39
-119.23
-135.99
-140.11
-132.97
-119.11
-104.84
-96.66
-98.75
-114.56
-142.45
-176.29
-206.49
-224.84
-226.52
-211.81
-186.23
-145.63
-97.27
-53.20
-20.76
3.32
25.27
48.31
70.83
89.10
100.70
104.27
103.30
101.54
102.14
103.89
103.70
98.37
85.99
66.39
39.43
8.14
-25.68
-55.66
-79.45
-97.30
-110.89
-121.66
-130.39
-143.55
-157.14
-168.97
-177.18
-181.23
-181.08
-177.11
-169.24
-158.04
-144.26
-117.48
-75.81
-20.71
44.57
115.89
188.21
256.12
312.12
349.12
364.15
352.76
313.88
253.17
181.58
111.86
55.29
15.39
-9.91
-21.11
-26.60
-38.17
-60.31
-89.39
-123.60
-160.99
-204.47
-255.75
-311.04
-359.77
-395.69
-412.82
-408.33
-383.27
-324.22
-234.83
-147.97
-68.07
12.11
92.73
173.40
252.53
327.06
393.13
443.43
473.02
483.75
476.71
452.88
416.68
373.40
327.31
281.23
234.43
187.11
142.93
102.22
61.92
19.14
-28.36
-81.07
-136.91
-192.85
-243.68
-281.91
-302.86
-305.20
-289.28
-257.63
-214.85
-166.85
-119.80
-77.45
-39.82
-6.00
23.85
47.96
62.74
64.32
50.75
23.17
-13.97
-54.16
-91.21
-120.46
-139.26
-147.03
-145.22
-137.10
-127.14
-119.87
-118.39
-123.01
-130.85
-136.66
-134.78
-121.40
-96.54
-64.57
-33.08
-9.99
0.07
-1.58
-7.29
-5.93
12.59
53.11
113.18
184.62
257.26
322.51
375.33
414.18
439.49
452.54
454.95
448.78
436.39
419.85
400.06
376.40
347.54
312.72
272.70
229.80
186.91
146.46
110.15
79.43
55.99
41.72
37.47
41.57
49.27
53.58
47.70
27.65
-6.22
-49.73
-96.83
-142.14
-182.53
-217.19
-246.75
-272.19
-294.27
-313.63
-331.06
-347.46
-363.23
-377.40
-387.20
-388.73
-378.36
-354.52
-318.68
-275.05
-229.13
-185.77
-147.73
-115.16
-86.36
-59.02
-31.42
-3.11
25.25
52.60
78.06
101.31
122.51
142.09
160.61
178.81
197.55
217.52
238.73
259.94
278.37
290.16
291.26
278.65
251.37
210.85
160.62
105.44
50.34
-0.19
-42.76
-75.32
-97.28
-109.42
-113.77
-113.12
-110.58
-108.92
-110.03
-114.69
-122.78
-133.70
-146.67
-160.78
-174.81
-187.19
-196.27
-200.41
-198.59
-190.64
-177.61
-161.46
-144.67
-129.62
-118.11
-111.49
-110.08
-113.42
-120.46
-130.19
-141.58
-153.46
-164.21
-171.88
-175.32
-173.42
-165.50
-151.78
-134.02
-114.95
-97.46
-83.58
-74.25
-71.23
-74.96
-84.45
-98.04
-114.56
-133.20
-153.18
-173.86
-194.61
-217.46
-242.21
-265.04
-279.67
-281.13
-267.69
-242.03
-210.36
-180.10
-160.38
-154.07
-156.54
-159.00
-154.76
-140.88
-118.00
-87.65
-27.88
67.70
187.18
307.31
408.78
481.39
523.28
537.71
531.94
515.06
491.89
466.00
440.03
420.36
404.00
388.02
370.33
349.94
325.73
293.99
253.61
207.48
161.42
120.78
90.50
73.50
70.87
80.12
93.90
105.14
110.41
110.78
109.89
112.93
123.29
139.90
153.82
153.00
130.47
88.48
36.76
-13.39
-53.63
-81.24
-98.60
-114.50
-137.65
-171.71
-215.01
-264.11
-317.00
-373.44
-433.58
-472.49
-470.92
-427.07
-356.95
-279.27
-204.51
-135.50
-72.61
-16.90
29.42
60.46
72.26
66.60
51.43
34.55
22.38
16.43
14.79
14.40
10.17
-1.16
-18.79
-38.30
-55.55
-69.12
-80.50
-91.84
-104.37
-116.55
-127.70
-136.96
-142.85
-145.65
-147.55
-151.66
-159.72
-171.43
-186.05
-202.91
-220.56
-233.87
-238.30
-232.04
-216.52
-194.46
-168.94
-143.46
-121.51
-104.93
-87.22
-61.93
-27.37
12.51
51.91
86.21
112.70
131.04
143.58
164.15
203.47
262.07
330.83
399.08
460.55
513.84
560.93
605.24
662.28
741.99
841.69
948.33
1048.93
1136.29
1207.54
1261.82
1221.01
1048.84
776.29
481.43
228.40
40.57
-87.31
-171.19
-226.24
-263.33
-276.73
-262.48
-226.19
-183.78
-149.28
-128.86
-122.80
-127.79
-139.71
-145.83
-138.28
-119.20
-98.93
-88.17
-86.79
-92.61
-102.38
-113.67
-119.65
-116.94
-108.17
-100.18
-98.58
-104.84
-118.32
-137.06
-159.19
-180.54
-198.40
-212.95
-226.98
-243.58
-264.52
-290.37
-318.93
-345.44
-362.90
-366.02
-354.08
-331.28
-304.06
-277.68
-254.53
-233.63
-212.61
-190.12
-167.23
-146.63
-130.52
-119.01
-110.03
-101.09
-90.75
-79.33
-68.16
-58.31
-50.13
-43.22
-36.90
-30.40
-22.70
-12.42
1.62
19.53
39.35
57.13
68.27
69.28
58.85
37.94
8.58
-26.72
-65.04
-102.23
-132.45
-149.00
-146.52
-123.70
-84.46
-37.49
6.93
40.25
58.30
62.00
55.96
45.76
35.51
26.57
17.67
6.69
-7.58
-24.23
-41.01
-55.78
-68.17
-79.57
-91.45
-103.27
-111.28
-109.64
-93.08
-59.91
-13.45
38.87
88.09
126.77
150.76
159.48
154.95
140.50
119.84
96.25
72.23
49.44
29.02
12.01
-0.35
-7.16
-8.50
-5.71
-0.86
4.32
9.13
13.73
18.08
20.98
20.18
13.77
2.13
-11.31
-20.87
-21.11
-9.36
13.18
42.04
71.45
96.06
111.82
116.32
108.97
90.94
65.51
37.29
11.00
-9.81
-23.57
-30.80
-33.32
-33.16
-31.68
-29.19
-25.09
-18.51
-9.15
2.03
12.71
19.67
20.11
12.58
-2.39
-22.63
-45.30
-67.74
-87.93
-104.34
-115.40
-119.37
-114.90
-101.65
-81.08
-56.04
-29.78
-4.58
19.05
41.96
65.03
87.59
107.17
120.43
125.12
121.60
112.87
102.86
94.58
88.95
85.08
81.69
78.39
76.11
76.15
79.03
83.63
87.88
89.97
89.28
86.71
83.95
82.63
83.58
86.41
89.45
90.57
87.96
80.47
67.84
50.37
28.64
2.98
-26.76
-61.48
-101.26
-144.51
-188.12
-228.50
-262.59
-288.29
-304.78
-312.40
-313.75
-311.18
-305.93
-298.61
-290.01
-281.07
-271.99
-261.62
-247.88
-231.00
-211.04
-187.84
-162.10
-136.49
-114.91
-100.49
-94.06
-94.03
-100.57
-111.92
-124.17
-132.46
-133.27
-124.96
-107.45
-82.04
-32.19
41.97
123.85
191.99
235.77
257.99
267.64
272.99
278.35
284.08
285.17
278.01
263.17
244.75
226.93
212.23
201.33
193.71
187.93
179.69
166.43
147.24
123.34
95.62
64.31
30.13
-4.29
-34.19
-53.57
-59.53
-52.53
-36.60
-18.55
-5.11
0.31
-1.32
-5.83
-9.80
-11.63
-11.51
-9.31
-4.93
2.12
12.46
26.23
42.77
59.73
74.19
84.01
88.70
88.83
85.55
80.05
70.77
59.12
45.91
31.39
15.89
0.27
-14.43
-27.09
-37.11
-44.19
-48.28
-50.11
-50.50
-49.93
-48.36
-45.50
-40.83
-34.70
-26.43
-15.28
-1.23
15.35
33.71
52.91
71.93
90.10
106.60
120.92
132.30
139.23
139.95
133.22
118.82
97.66
71.34
41.01
7.97
-25.84
-57.56
-83.31
-99.14
-102.34
-92.72
-69.15
-35.64
1.18
34.43
59.34
74.63
82.21
85.82
89.49
96.24
106.85
120.28
134.92
149.07
161.20
169.61
172.55
169.06
159.66
146.06
129.54
111.75
94.50
79.40
67.20
57.78
50.78
45.82
42.40
37.00
27.07
12.60
-3.93
-19.65
-32.84
-42.91
-50.26
-55.64
-65.05
-82.98
-109.95
-142.37
-175.88
-207.63
-236.16
-261.39
-283.52
-309.73
-345.95
-393.67
-449.75
-510.38
-573.76
-639.27
-707.49
-734.11
-692.64
-587.92
-452.85
-321.72
-212.96
-130.27
-69.52
-26.08
4.40
20.03
21.42
14.97
12.11
22.62
44.97
78.57
117.45
154.71
181.66
194.23
194.53
189.30
184.92
184.51
189.20
198.22
211.51
228.36
248.85
269.80
289.24
305.15
315.02
317.39
311.14
286.28
238.34
170.34
91.68
13.00
-58.45
-119.66
-169.91
-209.89
-240.37
-261.13
-273.89
-280.05
-281.39
-279.76
-276.66
-272.66
-267.84
-261.75
-252.42
-238.25
-218.25
-194.93
-170.86
-148.27
-128.58
-112.64
-100.59
-91.32
-83.63
-76.53
-69.51
-61.98
-53.30
-42.81
-29.95
-14.29
4.86
27.81
54.46
84.01
115.49
147.61
179.01
208.51
235.28
259.19
280.51
299.76
317.38
333.96
350.09
366.33
382.87
399.25
414.09
425.23
430.30
427.37
415.62
395.30
367.41
333.09
293.36
249.26
202.21
154.35
108.39
67.02
32.10
4.10
-17.88
-35.52
-50.38
-63.34
-74.47
-83.45
-90.26
-95.65
-101.09
-108.30
-118.41
-131.51
-146.62
-162.09
-176.19
-187.58
-195.46
-199.44
-199.38
-195.41
-187.95
-177.63
-165.11
-150.78
-134.74
-117.05
-98.15
-79.14
-61.58
-46.73
-34.78
-24.45
-13.50
0.13
17.03
35.68
52.78
64.54
68.17
63.07
51.18
36.39
23.36
16.00
16.35
24.16
37.29
52.69
67.42
79.30
87.28
91.12
91.13
87.99
82.66
76.41
70.73
67.06
66.60
70.05
77.44
87.85
99.52
110.12
117.63
121.38
122.68
124.43
129.75
140.21
154.60
169.03
178.32
178.07
166.15
143.02
110.85
72.28
29.60
-15.14
-59.52
-100.35
-133.72
-155.80
-163.94
-157.47
-138.01
-109.10
-75.31
-41.32
-11.15
12.36
27.67
34.34
32.70
23.51
7.74
-13.23
-37.44
-62.21
-84.47
-101.44
-111.61
-115.13
-113.84
-110.42
-107.31
-105.69
-105.16
-104.19
-101.07
-94.79
-85.43
-74.07
-62.27
-51.65
-43.53
-38.83
-38.03
-41.03
-46.96
-53.93
-59.22
-59.89
-53.82
-40.77
-22.84
-4.08
10.88
18.50
17.58
9.65
-1.93
-13.47
-22.31
-27.44
-29.27
-28.72
-26.40
-22.29
-15.96
-7.10
4.03
16.47
28.74
39.23
46.77
50.96
52.31
52.18
52.23
53.95
57.96
63.82
70.08
74.83
76.25
73.14
65.19
52.83
37.03
19.17
0.95
-15.60
-28.30
-35.14
-34.90
-27.65
-15.02
-0.05
13.45
21.76
22.19
13.70
-2.87
-25.06
-49.54
-72.92
-92.68
-107.56
-117.60
-123.73
-127.12
-128.50
-127.87
-124.51
-117.35
-105.47
-88.58
-67.30
-43.15
-18.32
4.86
24.45
39.36
49.63
56.23
60.72
64.63
68.90
73.80
79.11
84.63
90.55
97.43
105.82
115.54
125.41
133.46
137.69
136.97
131.50
122.64
112.10
101.12
90.03
78.42
65.75
52.04
38.13
25.49
15.51
8.89
5.29
3.52
2.11
-0.09
-3.37
-7.22
-10.63
-12.68
-12.95
-11.70
-9.72
-8.02
-7.54
-8.97
-12.63
-18.40
-25.63
-33.16
-39.42
-42.90
-42.57
-38.34
-31.12
-22.53
-14.29
-7.72
-3.34
-0.99
-0.02
0.28
0.45
0.73
1.13
1.48
1.60
1.29
0.36
-1.37
-4.03
-7.59
-11.81
-16.06
-19.45
-21.03
-20.13
-16.73
-11.62
-6.23
-2.33
-1.44
-4.44
-11.24
-20.66
-30.58
-38.25
-40.84
-36.14
-23.26
-3.04
21.97
48.08
71.43
88.88
98.54
99.88
93.34
79.93
60.92
37.82
12.40
-13.25
-37.06
-57.33
-73.01
-83.75
-89.75
-91.33
-88.83
-82.54
-72.94
-60.81
-47.23
-33.37
-20.20
-8.36
1.89
10.42
17.13
21.78
24.22
24.42
22.75
19.83
16.48
13.54
11.69
11.40
12.93
16.39
21.61
28.11
35.02
41.19
45.39
46.70
44.84
40.22
33.93
27.29
21.43
16.92
13.62
10.80
7.37
2.22
-5.56
-16.44
-30.28
-46.28
-63.13
-79.12
-92.47
-101.57
-105.23
-102.88
-94.67
-81.48
-64.71
-46.04
-27.04
-8.92
7.42
21.39
32.43
39.96
43.52
42.99
38.81
31.90
23.51
14.81
6.70
-0.33
-6.20
-11.05
-15.10
-18.51
-21.32
-23.40
-24.50
-24.28
-22.30
-18.13
-11.31
-1.54
11.20
26.26
42.27
57.00
67.72
71.79
67.32
53.87
32.72
6.74
-20.15
-43.67
-60.10
-66.81
-62.81
-48.78
-27.00
-0.86
25.72
49.00
66.00
74.92
75.23
67.66
53.84
36.04
16.69
-2.00
-18.37
-31.52
-41.27
-47.89
-51.73
-53.04
-51.83
-47.90
-41.16
-31.66
-19.81
-6.31
7.86
21.53
33.51
42.73
48.39
50.16
48.21
43.25
36.30
28.48
20.61
13.04
5.50
-2.68
-12.12
-22.98
-34.69
-45.95
-55.21
-61.07
-62.83
-60.63
-55.31
-48.12
-40.33
-32.93
-26.51
-21.32
-17.36
-14.45
-12.34
-10.67
-9.08
-7.21
-4.86
-2.08
0.82
3.32
4.93
5.33
4.65
3.36
2.15
1.68
2.32
4.00
6.23
8.23
9.17
8.45
5.97
2.23
-1.66
-4.26
-4.25
-0.89
5.72
14.62
24.32
33.22
40.09
44.34
46.10
46.08
45.39
45.23
46.68
50.35
56.07
62.79
68.51
70.74
67.13
56.21
38.03
14.20
-12.46
-38.81
-62.29
-81.59
-96.69
-108.45
-117.92
-125.76
-132.00
-136.15
-137.60
-135.97
-131.33
-124.22
-115.39
-105.52
-95.08
-84.26
-72.90
-60.64
-47.00
-31.59
-14.44
3.85
22.07
38.51
51.32
58.86
60.01
54.31
42.10
24.71
4.65
-14.50
-28.66
-34.40
-30.03
-16.45
3.05
23.98
42.18
55.27
63.05
67.00
69.24
71.37
73.90
76.35
77.83
77.62
75.57
72.09
67.77
63.05
58.03
52.47
46.10
38.85
31.03
23.19
15.92
9.62
4.32
-0.08
-3.70
-6.35
-7.49
-6.42
-2.67
3.61
11.43
19.10
24.75
26.88
24.87
19.16
11.03
2.35
-4.85
-8.73
-8.01
-2.33
7.44
19.25
30.31
37.96
40.55
37.96
31.38
22.61
13.08
3.39
-6.69
-17.55
-29.14
-40.65
-50.79
-58.29
-62.55
-63.72
-62.43
-59.35
-54.79
-48.71
-41.01
-31.92
-22.22
-13.06
-5.64
-0.73
1.55
1.74
0.79
-0.27
-0.78
-0.61
-0.30
-0.87
-3.44
-8.80
-16.91
-26.82
-36.82
-44.97
-49.75
-50.55
-47.79
-42.67
-36.71
-31.18
-26.72
-23.32
-20.47
-17.45
-13.61
-8.62
-2.50
4.32
11.12
17.06
21.26
23.11
22.41
19.50
15.23
10.76
7.27
5.70
6.51
9.67
14.74
21.01
27.76
34.36
40.32
45.09
47.95
47.90
43.86
34.99
21.21
3.53
-15.92
-34.19
-48.17
-55.40
-54.77
-46.93
-34.07
-19.44
-6.39
2.60
6.51
6.02
3.13
0.30
-0.33
2.30
7.89
15.07
21.80
26.18
26.88
23.58
16.87
8.03
-1.40
-10.06
-17.04
-22.08
-25.46
-27.75
-29.54
-31.21
-32.74
-33.84
-34.10
-33.19
-30.95
-27.40
-22.63
-16.74
-9.82
-2.12
5.93
13.64
20.22
24.93
27.32
27.33
25.35
22.05
18.30
15.13
13.56
14.49
18.43
25.27
34.06
43.14
50.46
54.16
53.10
47.07
36.79
23.49
8.55
-6.82
-21.66
-35.17
-46.74
-55.92
-62.58
-66.94
-69.53
-70.97
-71.72
-71.91
-71.27
-69.29
-65.35
-58.94
-49.74
-37.66
-22.90
-5.94
12.40
30.84
47.73
61.23
69.61
71.72
67.28
57.03
42.47
25.58
8.30
-7.71
-21.23
-31.53
-38.33
-41.88
-43.02
-43.12
-43.86
-46.84
-53.17
-63.09
-75.90
-90.23
-104.42
-117.09
-127.45
-135.27
-140.72
-143.88
-144.43
-141.68
-134.75
-123.04
-106.50
-85.67
-61.45
-34.88
-6.84
21.92
50.67
78.61
104.97
129.09
150.66
169.80
186.79
201.82
214.77
225.22
232.74
237.27
239.26
239.60
239.16
238.46
237.44
235.58
232.23
226.91
219.39
209.52
197.00
181.34
162.02
138.94
112.75
84.90
57.44
32.45
11.43
-5.10
-17.66
-27.54
-36.24
-44.80
-53.55
-62.07
-69.56
-75.39
-79.49
-82.43
-85.17
-88.65
-93.34
-99.08
-105.13
-110.41
-113.80
-114.38
-111.60
-105.36
-96.02
-84.35
-71.44
-58.51
-46.71
-36.90
-29.56
-24.76
-22.19
-21.27
-21.25
-21.38
-20.96
-19.56
-17.07
-13.85
-10.68
-8.62
-8.71
-11.61
-17.39
-25.34
-34.17
-42.25
-48.01
-50.16
-48.06
-41.79
-32.26
-21.15
-10.55
-2.45
1.83
2.00
-1.19
-6.39
-12.25
-17.92
-23.30
-28.71
-34.60
-41.06
-47.70
-53.78
-58.44
-61.00
-61.10
-58.73
-54.10
-47.64
-39.86
-31.44
-23.17
-15.86
-10.25
-6.69
-5.11
-4.90
-5.15
-5.00
-3.87
-1.66
1.29
4.40
7.15
9.19
10.45
11.06
11.21
11.21
11.45
12.53
15.17
20.12
27.92
38.59
51.50
65.24
77.97
87.65
92.58
91.64
84.65
72.31
56.13
38.14
20.53
5.31
-6.02
-12.69
-14.83
-13.28
-9.39
-4.69
-0.51
2.24
3.16
2.29
-0.01
-3.22
-6.76
-10.00
-12.40
-13.46
-12.90
-10.77
-7.45
-3.61
-0.03
2.60
3.96
4.07
3.34
2.23
1.01
-0.37
-2.31
-5.25
-9.45
-14.68
-20.31
-25.45
-29.31
-31.43
-31.84
-30.93
-29.28
-27.55
-26.31
-26.00
-26.84
-28.80
-31.61
-34.77
-37.63
-39.55
-40.07
-38.95
-36.27
-32.34
-27.63
-22.61
-17.67
-13.12
-9.15
-5.84
-3.23
-1.32
-0.09
0.49
0.50
0.12
-0.40
-0.66
-0.23
1.29
4.13
8.26
13.37
18.94
24.42
29.32
33.36
36.40
38.44
39.50
39.55
38.55
36.44
33.22
29.05
24.17
18.93
13.72
8.95
4.91
1.87
-0.07
-0.93
-0.85
-0.01
1.29
2.78
4.11
4.91
4.84
3.74
1.70
-0.89
-3.40
-5.27
-6.14
-6.06
-5.53
-5.19
-5.64
-7.20
-9.80
-13.07
-16.50
-19.53
-21.68
-22.58
-22.08
-20.26
-17.48
-14.30
-11.33
-9.02
-7.58
-6.94
-6.92
-7.41
-8.35
-9.77
-11.53
-13.31
-14.53
-14.65
-13.33
-10.73
-7.47
-4.39
-2.25
-1.48
-1.99
-3.25
-4.43
-4.66
-3.31
-0.13
4.63
10.26
15.85
20.58
23.93
25.89
26.90
27.53
28.28
29.30
30.34
30.94
30.58
28.94
26.06
22.22
17.93
13.70
9.94
6.89
4.68
3.35
2.96
3.53
4.99
7.08
9.27
10.73
10.57
7.96
2.57
-5.28
-14.41
-23.01
-29.03
-30.81
-27.70
-20.27
-10.26
-0.11
7.71
11.40
10.20
4.52
-4.27
-14.23
-23.27
-29.62
-32.16
-30.59
-25.45
-17.95
-9.71
-2.38
2.67
4.58
3.18
-1.04
-7.03
-13.52
-19.24
-23.35
-25.50
-25.86
-24.87
-22.96
-20.27
-16.59
-11.51
-4.73
3.61
12.85
21.86
29.43
34.56
36.85
36.52
34.31
31.24
28.23
25.91
24.51
23.88
23.56
22.96
21.55
19.03
15.56
11.73
8.60
7.35
8.87
13.45
20.45
28.46
35.59
40.11
40.82
37.50
30.80
22.03
12.69
4.21
-2.46
-6.84
-8.95
-9.20
-8.21
-6.81
-5.79
-5.89
-7.59
-11.02
-15.80
-21.12
-25.83
-28.76
-29.11
-26.72
-22.31
-17.35
-13.77
-13.28
-16.82
-24.19
-34.09
-44.56
-53.70
-60.27
-64.03
-65.66
-66.25
-66.76
-67.58
-68.52
-69.15
-69.15
-68.75
-68.56
-69.34
-71.49
-74.80
-78.56
-82.01
-84.92
-87.86
-92.08
-98.83
-108.58
-120.51
-132.58
-142.13
-146.87
-145.80
-139.44
-129.63
-118.65
-108.53
-100.58
-95.41
-93.35
-94.71
-99.67
-107.74
-117.57
-127.23
-135.10
-140.84
-145.56
-151.24
-159.37
-169.79
-180.28
-187.21
-186.79
-176.03
-153.40
-118.94
-73.80
-19.99
39.85
102.79
165.67
225.07
277.11
317.91
344.71
357.40
359.28
356.03
352.90
351.52
348.38
336.51
309.73
267.34
216.10
168.13
135.31
123.43
129.16
141.96
149.73
145.11
129.13
110.05
98.37
100.78
116.29
136.50
150.42
150.50
136.78
116.60
100.52
96.65
106.76
126.20
147.03
162.57
170.20
171.50
170.00
168.78
169.05
170.55
172.82
176.04
180.87
187.48
194.78
200.84
203.96
203.96
202.65
203.15
208.25
218.76
232.73
245.92
253.33
250.91
236.82
211.84
178.70
140.92
101.49
61.96
21.99
-20.16
-66.51
-117.38
-170.13
-219.10
-257.01
-277.80
-279.24
-264.01
-238.52
-210.20
-185.12
-166.74
-156.03
-152.26
-153.28
-154.92
-150.84
-133.67
-97.92
-43.65
21.55
83.93
128.08
142.57
123.89
76.70
10.92
-62.76
-136.08
-203.85
-262.59
-308.89
-339.31
-351.27
-345.06
-324.82
-297.30
-269.36
-245.33
-225.83
-208.73
-191.13
-171.58
-150.88
-131.39
-115.43
-103.90
-95.71
-88.56
-80.17
-69.44
-56.86
-44.12
-33.01
-24.42
-17.77
-11.17
-2.15
11.35
30.24
53.70
78.98
101.60
116.14
117.42
102.22
70.61
26.44
-23.49
-71.38
-110.72
-137.93
-152.78
-157.35
-154.45
-146.19
-133.48
-116.47
-95.52
-71.93
-48.02
-26.52
-9.65
1.59
7.55
9.48
8.93
7.49
6.96
9.70
18.46
35.62
61.85
95.05
130.34
161.24
181.80
188.56
181.39
162.95
137.28
108.17
78.30
49.40
22.98
0.98
-14.04
-19.49
-13.77
2.70
26.95
53.82
77.09
91.10
92.34
80.14
56.64
25.77
-8.07
-41.02
-70.14
-93.30
-108.79
-115.28
-112.18
-100.14
-81.22
-58.26
-33.93
-9.68
14.35
38.58
62.76
84.98
101.75
108.96
103.28
83.28
49.86
6.04
-43.52
-93.10
-136.64
-168.65
-185.47
-186.32
-173.63
-152.38
-128.44
-106.90
-90.79
-80.85
-75.84
-73.39
-70.67
-65.04
-54.43
-37.92
-15.90
9.94
37.00
62.52
84.22
100.63
110.95
114.82
112.02
102.63
87.42
68.22
47.85
29.43
15.17
5.65
-0.28
-4.63
-8.92
-13.18
-15.91
-14.64
-6.88
9.16
34.03
66.52
103.10
137.79
163.00
171.41
158.36
123.66
71.74
10.24
-52.44
-109.17
-154.97
-186.78
-202.75
-201.83
-183.91
-150.19
-103.40
-47.65
12.14
70.52
121.68
159.78
179.61
177.67
153.35
109.85
54.17
-3.97
-53.92
-86.56
-96.37
-82.76
-50.21
-6.95
37.06
72.64
93.33
96.39
82.89
56.78
23.62
-10.74
-41.11
-63.66
-76.20
-78.32
-71.21
-57.23
-39.27
-19.99
-1.25
16.08
31.97
46.60
59.77
70.40
76.51
75.63
65.73
46.15
18.32
-14.23
-46.47
-73.25
-90.76
-97.43
-94.21
-83.95
-70.33
-56.90
-46.47
-41.00
-41.67
-48.81
-61.71
-78.37
-95.58
-109.49
-116.70
-115.28
-105.42
-89.27
-70.12
-51.40
-35.67
-24.16
-16.87
-13.20
-12.58
-14.95
-20.47
-28.76
-38.00
-44.69
-44.34
-33.25
-10.34
21.84
57.60
89.99
113.32
124.86
125.38
118.48
109.21
102.87
103.94
115.21
137.02
166.79
199.04
226.49
241.90
240.17
219.83
183.36
136.15
84.78
35.16
-8.60
-44.43
-71.76
-90.69
-101.35
-103.73
-98.00
-85.10
-66.97
-46.45
-26.41
-8.97
5.00
15.67
23.42
27.96
28.17
22.63
10.61
-7.11
-28.32
-50.25
-70.83
-89.27
-105.72
-120.29
-131.97
-138.47
-136.87
-124.80
-101.13
-66.17
-21.53
29.62
82.23
129.25
162.61
175.42
164.46
131.68
83.56
28.60
-25.73
-74.89
-117.19
-152.26
-179.41
-197.02
-203.34
-197.73
-181.39
-156.96
-127.46
-95.32
-62.23
-29.50
1.34
28.34
49.58
63.77
70.80
71.89
69.24
65.59
63.71
65.81
73.08
85.30
100.81
116.74
129.69
136.43
134.48
122.47
100.42
69.89
34.00
-2.87
-36.06
-61.73
-77.91
-84.73
-83.89
-77.51
-67.22
-53.89
-37.99
-20.42
-2.95
11.93
21.80
25.08
21.57
12.29
-1.10
-17.03
-34.57
-53.43
-73.45
-93.97
-113.22
-128.48
-136.65
-135.17
-122.48
-98.25
-63.51
-20.91
24.51
65.19
92.07
97.34
77.90
37.84
-12.00
-57.40
-85.91
-91.43
-75.90
-47.62
-17.33
5.86
16.96
15.35
3.53
-14.47
-34.24
-51.61
-62.86
-65.01
-56.28
-36.84
-9.01
22.92
53.73
78.64
94.62
100.95
98.76
89.89
75.65
56.06
30.41
-1.42
-37.19
-71.42
-96.05
-102.82
-86.51
-47.44
8.07
69.72
126.98
172.76
205.13
226.55
241.03
251.21
256.91
255.83
245.77
226.68
201.30
174.11
149.51
130.18
116.53
107.21
100.01
92.69
83.33
70.52
53.53
32.54
8.94
-14.90
-36.18
-52.72
-63.89
-70.94
-76.53
-83.53
-93.90
-107.90
-124.01
-139.46
-150.96
-155.58
-151.33
-137.62
-115.45
-87.52
-57.72
-30.24
-8.52
5.49
11.55
10.74
4.69
-5.08
-17.73
-33.25
-52.20
-75.07
-101.38
-128.96
-153.72
-170.61
-175.29
-165.98
-144.41
-115.44
-85.29
-59.32
-40.29
-27.70
-18.31
-7.54
8.88
33.35
65.44
101.83
136.89
164.14
178.00
175.36
156.53
124.94
86.11
46.10
10.12
-18.46
-38.48
-50.99
-58.74
-65.30
-73.90
-86.21
-101.57
-116.80
-126.89
-126.44
-111.40
-80.43
-35.36
19.20
77.17
132.42
180.13
217.60
244.34
261.30
269.97
271.56
266.81
256.50
242.17
226.50
212.88
204.12
200.96
201.35
201.18
196.24
184.42
166.76
146.90
128.84
114.69
103.45
91.52
74.58
49.48
15.43
-25.86
-70.76
-114.40
-151.30
-176.14
-185.09
-177.59
-157.47
-132.50
-112.10
-103.78
-110.13
-127.81
-149.17
-165.68
-171.61
-166.07
-152.99
-138.81
-129.74
-129.46
-138.15
-152.93
-168.89
-180.26
-181.64
-169.32
-142.43
-103.42
-57.48
-10.94
30.66
63.92
87.83
102.99
110.50
111.37
106.51
97.12
84.94
71.88
59.42
48.04
37.46
27.23
17.34
8.50
1.71
-2.28
-3.54
-3.01
-2.26
-2.88
-6.01
-11.94
-20.11
-29.30
-38.17
-45.73
-51.64
-56.17
-59.99
-63.89
-68.46
-74.03
-80.63
-87.99
-95.81
-103.67
-111.11
-117.51
-122.31
-125.13
-126.18
-126.18
-126.18
-127.00
-128.73
-130.87
-132.64
-133.93
-135.06
-136.70
-138.85
-140.59
-140.32
-136.39
-127.65
-113.08
-92.19
-64.51
-30.70
6.84
43.48
73.18
90.74
93.96
84.98
68.58
53.67
47.30
52.75
68.31
88.35
106.85
117.56
121.00
118.89
112.42
101.79
87.31
71.40
57.10
46.66
40.14
35.85
31.71
27.92
27.05
32.73
46.50
65.42
82.38
89.30
81.87
62.29
38.29
18.57
7.95
4.79
2.06
-8.65
-32.00
-65.58
-99.58
-120.99
-119.66
-92.42
-43.90
15.87
75.75
127.66
164.02
181.54
182.37
171.68
153.89
131.33
106.12
82.31
65.92
61.85
72.01
92.50
113.71
123.52
112.48
77.74
23.95
-38.96
-99.97
-147.30
-173.67
-177.80
-163.60
-138.00
-108.46
-81.53
-61.87
-52.05
-52.16
-60.88
-76.11
-95.26
-115.23
-132.53
-143.95
-147.28
-142.08
-129.77
-113.64
-97.71
-85.43
-78.43
-76.15
-76.34
-75.88
-71.57
-60.45
-40.60
-11.91
22.91
58.00
85.21
96.57
87.50
59.08
18.09
-25.57
-62.68
-87.90
-100.82
-104.44
-102.37
-96.49
-86.23
-69.37
-43.77
-8.54
36.02
89.20
150.33
218.25
289.94
359.14
416.47
451.59
456.64
429.51
375.04
303.55
227.21
156.19
95.98
47.13
6.72
-29.34
-64.17
-98.35
-129.50
-152.78
-162.50
-154.34
-127.65
-86.48
-38.66
6.53
41.22
60.95
65.03
55.43
35.24
7.56
-24.54
-57.70
-88.08
-112.13
-127.80
-135.45
-137.58
-137.48
-137.42
-137.93
-138.38
-138.61
-140.03
-145.20
-155.90
-171.24
-187.28
-198.59
-200.94
-193.34
-177.92
-157.98
-135.75
-111.33
-83.79
-53.03
-21.04
8.77
33.67
53.38
70.28
87.64
107.20
127.82
145.93
157.64
160.80
156.17
146.89
136.92
129.44
126.06
126.81
130.90
137.22
144.46
151.14
155.59
156.13
151.47
140.89
124.26
101.99
75.15
45.80
17.27
-5.99
-19.53
-20.44
-8.93
11.23
33.46
50.24
55.35
45.52
21.01
-14.88
-56.79
-98.74
-135.34
-162.85
-179.84
-187.32
-188.17
-186.10
-184.29
-184.30
-185.84
-187.17
-186.14
-181.19
-171.92
-158.83
-142.76
-124.27
-103.35
-79.68
-53.02
-23.27
9.77
46.86
89.07
136.74
187.75
236.61
275.00
294.23
288.37
256.54
203.23
136.54
65.58
-1.81
-60.01
-105.51
-136.39
-152.05
-153.07
-141.04
-118.14
-86.49
-48.06
-5.21
38.50
78.24
108.72
125.79
127.78
115.66
92.22
60.82
24.76
-12.64
-47.56
-75.95
-94.75
-103.55
-105.46
-105.83
-109.52
-117.74
-126.85
-130.00
-120.72
-96.62
-60.74
-20.08
17.91
48.59
71.55
89.52
105.72
121.41
134.90
142.64
141.30
130.08
111.71
91.76
76.86
72.57
82.01
105.17
139.08
178.21
215.28
242.39
252.57
241.77
210.08
161.98
104.83
46.51
-7.10
-53.35
-92.66
-127.04
-158.23
-186.58
-210.82
-228.92
-239.04
-240.38
-233.31
-219.00
-198.79
-173.47
-143.32
-108.58
-70.15
-30.10
8.44
42.07
68.07
85.13
93.36
93.83
87.93
77.21
63.33
48.32
34.64
24.70
19.93
19.80
21.64
21.67
16.91
7.33
-3.14
-7.52
1.32
26.99
66.83
111.89
149.82
169.50
165.11
137.65
93.27
39.95
-15.80
-70.16
-121.16
-166.72
-203.43
-226.70
-232.40
-218.62
-186.70
-140.80
-86.84
-31.48
18.60
57.21
79.48
82.94
68.72
41.92
10.68
-16.19
-32.02
-34.52
-26.38
-13.87
-4.40
-3.72
-14.37
-35.45
-63.66
-94.60
-123.66
-146.51
-159.15
-158.34
-142.41
-112.08
-70.77
-23.94
22.34
63.09
95.44
118.80
134.20
143.21
147.05
146.25
140.64
129.69
112.86
90.00
61.87
30.56
-0.41
-26.79
-44.66
-51.80
-48.36
-36.50
-18.98
2.63
28.54
59.70
95.58
132.34
162.64
178.06
172.51
144.95
99.66
43.98
-14.80
-71.68
-123.98
-169.93
-206.97
-231.51
-240.25
-232.00
-208.63
-174.26
-133.38
-89.28
-43.91
1.13
43.39
79.01
103.55
113.77
109.26
93.16
71.44
51.34
39.26
38.91
50.28
69.60
90.29
104.62
105.93
90.38
58.03
12.79
-38.73
-89.02
-131.25
-160.71
-175.34
-175.73
-164.55
-145.70
-123.48
-101.85
-83.85
-71.36
-64.86
-63.48
-65.22
-67.38
-67.24
-62.72
-52.93
-38.16
-19.71
0.65
21.34
41.38
60.59
79.78
100.79
125.81
156.44
192.29
229.98
263.26
284.59
287.59
269.45
232.15
181.93
127.35
76.79
36.60
10.16
-1.83
-0.73
10.63
28.29
47.48
63.17
71.06
68.55
55.54
34.38
9.20
-15.46
-36.12
-51.15
-60.73
-66.05
-68.27
-67.83
-64.42
-57.59
-47.50
-35.39
-23.35
-13.73
-8.36
-8.06
-12.63
-21.04
-31.83
-43.46
-54.49
-63.77
-70.55
-74.53
-75.78
-74.59
-71.23
-65.78
-58.24
-48.68
-37.53
-25.76
-14.75
-6.01
-0.91
-0.27
-4.31
-12.56
-23.99
-37.15
-50.40
-62.20
-71.36
-77.36
-80.43
-81.57
-82.20
-83.73
-86.96
-91.65
-96.30
-98.45
-95.35
-84.80
-65.91
-39.37
-7.24
27.53
61.77
92.57
117.54
134.96
143.82
143.99
136.31
122.49
104.79
85.65
67.26
51.27
38.79
30.54
26.85
27.68
32.53
40.29
49.26
57.46
62.94
64.24
60.66
52.38
40.37
26.16
11.59
-1.48
-11.45
-17.27
-18.67
-16.18
-11.09
-5.07
0.18
3.32
3.60
0.92
-4.18
-10.70
-17.44
-23.23
-27.26
-29.25
-29.56
-29.04
-28.66
-29.20
-30.97
-33.76
-37.06
-40.28
-42.97
-44.94
-46.16
-46.66
-46.46
-45.57
-44.12
-42.43
-40.94
-40.18
-40.51
-41.95
-44.07
-46.02
-46.64
-44.84
-39.84
-31.45
-20.24
-7.33
5.70
17.23
25.79
30.29
30.05
24.90
15.19
1.94
-12.99
-27.01
-37.12
-40.57
-35.57
-21.88
-0.88
24.84
52.13
77.98
99.87
115.95
125.01
126.49
120.56
108.24
91.30
71.94
52.38
34.43
19.34
7.80
0.10
-3.80
-4.24
-1.93
2.05
6.45
10.05
12.01
12.06
10.49
8.03
5.52
3.72
3.04
3.57
5.06
7.07
9.10
10.65
11.37
11.11
9.92
7.99
5.53
2.69
-0.59
-4.42
-8.82
-13.48
-17.59
-19.97
-19.40
-15.13
-7.30
2.81
12.99
20.57
23.17
19.41
9.24
-5.95
-23.86
-41.83
-57.38
-68.61
-74.42
-74.65
-70.14
-62.58
-54.19
-46.93
-41.90
-39.04
-37.35
-35.67
-33.47
-31.12
-29.58
-29.67
-31.34
-33.62
-35.14
-34.85
-32.60
-29.02
-25.00
-21.01
-16.84
-11.85
-5.52
2.00
9.70
16.03
19.42
18.82
14.03
5.76
-4.54
-15.10
-24.18
-30.64
-34.33
-36.28
-38.44
-42.86
-50.51
-60.34
-69.05
-72.16
-65.68
-48.03
-21.08
10.26
39.79
62.30
75.32
79.67
78.52
75.84
74.77
76.69
80.93
85.10
85.79
79.45
63.51
37.55
4.02
-31.98
-64.06
-86.87
-98.35
-100.82
-100.12
-102.93
-113.54
-131.64
-152.36
-168.77
-175.14
-169.70
-154.96
-135.91
-117.10
-100.41
-84.99
-68.97
-51.78
-35.46
-24.06
-21.66
-30.11
-48.18
-72.21
-98.25
-123.97
-149.41
-175.93
-204.23
-232.38
-255.36
-266.24
-258.46
-228.15
-175.17
-102.91
-17.26
74.57
164.93
246.43
312.93
360.75
389.66
402.77
405.17
401.54
394.10
382.11
363.17
335.49
299.97
260.59
223.32
194.04
176.77
172.94
181.42
198.97
220.65
240.39
251.76
249.35
230.34
195.63
149.89
100.13
53.51
15.29
-12.27
-29.71
-39.17
-43.15
-43.67
-42.18
-39.87
-37.87
-37.13
-38.03
-40.10
-42.06
-42.46
-40.43
-36.25
-31.24
-26.96
-24.38
-23.36
-22.85
-21.57
-18.84
-14.88
-10.50
-6.63
-3.77
-1.98
-1.23
-1.73
-4.04
-8.85
-16.52
-26.79
-38.72
-50.97
-62.09
-70.93
-76.91
-80.09
-81.26
-81.62
-82.27
-83.55
-84.64
-83.41
-76.89
-62.31
-38.38
-6.44
29.17
61.97
85.12
93.72
86.51
66.17
38.26
9.20
-15.92
-34.51
-46.72
-54.67
-61.24
-69.00
-79.57
-93.43
-110.02
-128.05
-145.81
-161.51
-173.51
-180.37
-180.93
-174.44
-160.78
-140.49
-114.83
-85.42
-54.01
-22.17
8.66
37.02
61.29
79.74
90.85
93.67
88.13
75.24
56.93
35.81
14.85
-3.06
-15.57
-21.22
-19.73
-11.77
1.46
18.76
39.10
61.38
83.76
103.31
116.23
118.94
109.42
88.33
58.92
26.15
-4.98
-30.84
-49.89
-62.55
-70.48
-75.72
-79.80
-83.14
-84.83
-82.68
-74.08
-57.06
-31.51
0.14
33.07
61.05
78.07
80.05
66.09
38.84
3.92
-31.47
-60.39
-77.86
-81.87
-73.58
-56.54
-35.48
-15.03
1.26
11.34
14.64
11.87
4.69
-4.75
-14.18
-21.69
-26.04
-26.75
-23.94
-17.99
-9.26
1.99
15.50
30.64
46.20
60.37
71.11
76.70
76.34
70.45
60.54
48.65
36.50
24.98
13.98
2.84
-8.73
-19.89
-28.49
-31.28
-24.83
-6.52
24.26
65.12
110.37
151.74
180.19
188.49
173.49
137.14
85.81
28.08
-27.84
-75.95
-112.97
-137.77
-150.24
-150.74
-140.11
-120.03
-93.21
-63.11
-33.24
-6.61
14.66
29.37
37.09
37.98
32.61
22.06
7.93
-7.75
-22.84
-35.67
-45.60
-53.19
-59.88
-67.07
-75.18
-83.17
-88.88
-90.03
-85.33
-75.24
-61.80
-47.85
-35.86
-27.25
-22.14
-19.75
-19.04
-19.04
-19.10
-18.75
-17.64
-15.49
-12.17
-7.75
-2.50
3.37
9.85
17.27
26.13
36.83
49.38
63.25
77.47
90.77
101.82
109.41
112.50
110.39
102.77
89.99
73.20
54.42
36.41
22.35
15.27
17.29
28.76
47.76
70.17
90.45
103.07
104.14
92.50
69.80
39.73
6.56
-26.14
-56.05
-82.12
-104.07
-121.95
-135.88
-145.96
-151.93
-153.10
-148.38
-136.59
-117.21
-90.84
-58.97
-23.29
15.08
55.77
98.25
140.41
177.70
203.55
211.32
196.84
160.22
106.28
43.25
-19.48
-73.54
-113.21
-136.21
-143.49
-138.55
-126.13
-110.86
-96.05
-83.20
-72.28
-62.57
-53.55
-45.19
-37.84
-31.82
-27.14
-23.59
-20.92
-18.84
-16.83
-13.86
-8.32
1.58
17.14
38.49
64.38
92.39
119.54
142.81
159.78
168.87
169.60
162.65
149.93
134.41
120.05
111.32
112.39
125.93
151.50
184.65
217.26
239.58
243.35
224.77
185.70
132.48
73.00
13.68
-41.90
-92.34
-136.48
-171.89
-195.06
-203.01
-195.36
-175.39
-149.18
-123.36
-102.56
-88.10
-78.13
-69.16
-58.13
-43.89
-27.61
-12.11
-0.60
4.48
1.95
-8.19
-25.22
-48.15
-75.62
-105.31
-133.58
-155.75
-167.20
-164.91
-148.58
-120.77
-86.16
-49.85
-15.89
13.61
38.42
59.45
77.92
94.71
110.42
125.03
138.21
149.50
158.41
164.33
166.39
163.65
155.55
143.28
128.97
115.52
105.62
100.99
101.72
106.24
111.69
114.73
113.57
106.78
93.87
75.43
53.61
32.29
16.45
10.92
18.83
41.43
75.08
111.92
141.71
155.36
148.30
122.00
83.05
31.69
-27.00
-86.66
-141.38
-188.14
-226.49
-256.16
-275.40
-281.32
-272.04
-246.68
-209.30
-166.28
-124.87
-90.79
-66.30
-50.44
-40.22
-32.26
-22.97
-13.27
-3.93
3.78
9.02
12.00
13.91
16.24
20.14
26.52
35.03
44.99
55.39
65.69
75.94
86.25
95.97
103.56
107.32
105.94
99.59
89.38
76.79
62.82
47.44
29.77
8.84
-15.42
-41.90
-68.14
-91.14
-107.88
-115.91
-113.88
-101.92
-81.66
-55.98
-28.36
-2.07
20.03
35.67
43.03
41.09
30.13
12.64
-6.67
-21.83
-27.54
-21.28
-4.30
18.84
42.04
59.80
68.80
68.32
59.69
45.27
27.39
7.68
-13.19
-35.34
-59.12
-84.57
-110.89
-136.38
-158.76
-175.77
-185.57
-186.98
-179.58
-164.00
-142.23
-117.78
-95.10
-78.19
-69.04
-66.71
-67.83
-68.42
-66.09
-61.39
-57.24
-56.84
-61.19
-67.65
-70.57
-63.66
-42.84
-8.09
36.54
84.56
129.20
165.09
188.89
198.99
195.10
177.94
149.46
112.97
72.93
34.00
-0.02
-27.20
-47.57
-62.53
-73.67
-81.71
-86.11
-85.42
-78.25
-64.18
-44.32
-21.26
1.41
19.77
30.20
30.05
18.34
-3.55
-31.82
-60.81
-84.43
-97.86
-98.55
-86.06
-61.08
-24.57
22.09
75.86
130.88
178.80
211.01
222.02
211.83
186.09
153.52
122.02
95.68
74.03
53.37
29.08
-2.46
-42.79
-90.95
-143.28
-193.52
-233.67
-255.74
-254.40
-228.89
-183.45
-126.03
-65.89
-11.41
31.00
57.15
64.91
54.50
29.16
-4.62
-38.22
-63.18
-73.99
-69.82
-54.31
-33.78
-14.66
-1.49
3.90
1.90
-5.78
-16.93
-29.32
-40.83
-49.78
-55.36
-57.79
-58.29
-58.42
-59.19
-60.34
-60.23
-56.44
-46.86
-30.60
-8.62
16.59
41.74
63.67
79.85
88.41
87.81
76.78
54.81
22.77
-16.35
-57.43
-93.98
-119.58
-129.07
-119.29
-89.41
-41.08
21.37
90.80
157.99
213.39
249.49
262.99
255.50
232.43
200.50
165.07
128.36
89.42
45.73
-4.32
-59.32
-114.14
-161.12
-192.50
-203.08
-191.72
-161.04
-115.96
-61.85
-3.76
53.06
102.24
136.32
148.58
136.02
101.81
55.47
10.05
-22.40
-34.94
-27.59
-6.20
20.50
44.32
59.87
65.03
60.22
47.18
28.06
5.10
-19.36
-42.66
-62.21
-75.86
-82.51
-82.21
-76.01
-65.40
-51.75
-36.06
-19.05
-1.58
15.09
29.33
39.42
44.12
42.97
36.35
25.16
10.44
-6.79
-25.38
-43.64
-59.29
-69.70
-72.63
-67.02
-53.23
-32.52
-6.03
25.70
62.28
102.12
141.23
173.15
190.78
189.12
167.64
130.75
86.02
40.89
-0.31
-37.31
-72.66
-108.90
-146.03
-180.87
-208.17
-223.06
-223.08
-208.73
-182.45
-146.91
-104.02
-55.27
-3.54
45.32
82.66
99.37
89.74
54.73
2.72
-52.89
-98.21
-123.45
-125.48
-107.91
-78.63
-46.56
-19.09
-0.74
6.79
4.00
-7.27
-24.29
-43.91
-62.65
-77.14
-84.51
-82.92
-71.89
-52.05
-24.70
8.90
47.81
91.16
137.38
183.65
225.87
259.58
281.48
290.60
288.51
278.44
263.75
246.53
227.11
204.66
178.24
147.90
115.11
82.63
53.97
32.82
22.60
25.77
42.74
70.73
103.24
130.72
143.03
132.50
96.76
39.72
-29.64
-100.18
-161.92
-208.23
-236.62
-247.74
-244.12
-228.98
-205.75
-177.97
-149.16
-122.44
-99.90
-82.25
-68.95
-58.71
-50.48
-44.17
-40.82
-42.11
-49.47
-63.10
-81.60
-102.12
-121.14
-135.53
-143.22
-143.53
-137.07
-125.45
-110.83
-95.58
-81.84
-71.05
-63.60
-58.64
-54.30
-48.33
-38.80
-24.85
-6.89
13.52
34.25
53.09
68.20
78.31
82.89
82.10
76.78
68.24
57.92
47.14
36.87
28.08
22.07
20.88
26.96
42.19
66.63
97.61
130.07
157.91
175.95
181.45
174.47
157.11
132.07
101.64
67.40
30.66
-6.78
-42.32
-72.83
-95.45
-108.45
-111.68
-106.60
-95.81
-82.39
-69.16
-58.19
-50.59
-46.48
-45.33
-46.20
-47.91
-49.25
-48.99
-46.09
-40.00
-30.92
-19.96
-8.89
0.34
6.25
8.23
6.69
2.84
-1.78
-5.82
-8.40
-9.30
-8.83
-7.65
-6.48
-5.88
-6.17
-7.38
-9.30
-11.62
-13.96
-15.93
-17.22
-17.61
-16.91
-15.00
-11.72
-6.90
-0.42
7.73
17.24
27.52
37.79
47.21
55.11
60.97
64.49
65.49
63.95
60.07
54.34
47.53
40.56
34.25
29.14
25.38
22.75
20.91
19.53
18.44
17.62
17.07
16.71
16.33
15.59
14.16
11.84
8.64
4.75
0.44
-3.96
-8.22
-12.06
-15.28
-17.66
-19.12
-19.77
-19.97
-20.20
-20.96
-22.50
-24.76
-27.35
-29.75
-31.49
-32.26
-31.96
-30.59
-28.22
-24.89
-20.65
-15.64
-10.13
-4.50
0.82
5.47
9.28
12.32
14.87
17.33
20.11
23.48
27.48
31.85
36.14
39.76
42.10
42.68
41.21
37.67
32.29
25.57
18.10
10.50
3.27
-3.30
-9.05
-13.95
-18.01
-21.17
-23.32
-24.45
-24.68
-24.36
-23.92
-23.77
-24.00
-24.37
-24.30
-23.05
-20.04
-14.99
-8.17
-0.23
7.91
15.26
20.93
24.34
25.22
23.69
20.28
15.77
11.05
6.93
3.94
2.16
1.26
0.51
-0.97
-3.88
-8.56
-14.86
-22.11
-29.38
-35.70
-40.35
-43.00
-43.79
-43.18
-41.90
-40.59
-39.68
-39.25
-39.01
-38.45
-37.06
-34.55
-31.00
-26.85
-22.83
-19.75
-18.31
-18.85
-21.22
-24.74
-28.32
-30.63
-30.55
-27.35
-20.85
-11.33
0.70
14.67
29.98
45.92
61.46
75.29
85.95
92.23
93.49
89.96
82.64
73.09
62.99
53.78
46.40
41.18
37.87
35.80
34.07
31.86
28.69
24.50
19.68
14.86
10.57
7.08
4.33
2.11
0.34
-0.73
-0.58
1.41
5.54
11.57
18.65
25.53
30.88
33.72
33.55
30.43
24.88
17.86
10.59
4.38
0.19
-1.79
-2.39
-3.33
-6.58
-13.56
-24.34
-37.52
-50.63
-61.07
-67.06
-68.18
-65.30
-60.04
-53.98
-48.27
-43.37
-39.30
-35.77
-32.32
-28.27
-22.83
-15.27
-5.32
6.47
18.82
30.02
38.75
44.58
48.09
50.48
52.83
55.50
58.01
59.35
58.57
55.04
48.57
39.18
26.95
12.10
-4.77
-22.47
-39.20
-52.87
-61.74
-64.83
-62.08
-54.31
-42.81
-29.22
-15.24
-2.55
7.39
13.60
15.80
14.50
10.80
6.04
1.44
-2.23
-4.57
-5.48
-5.01
-3.23
-0.36
3.30
7.31
11.20
14.56
17.10
18.65
19.09
18.30
16.15
12.51
7.38
0.95
-6.34
-13.84
-20.77
-26.42
-30.26
-32.09
-32.07
-30.63
-28.36
-25.84
-23.51
-21.70
-20.59
-20.33
-21.04
-22.77
-25.32
-28.20
-30.63
-31.72
-30.67
-27.06
-21.01
-13.16
-4.44
4.17
11.91
18.24
22.82
25.40
25.94
24.78
22.77
21.16
21.30
24.21
30.19
38.85
49.15
59.75
69.18
75.92
78.51
75.76
67.12
53.07
35.12
15.47
-3.63
-20.55
-34.64
-46.04
-55.32
-62.92
-68.96
-73.18
-75.34
-75.43
-73.87
-71.42
-68.84
-66.73
-65.25
-64.24
-63.27
-61.93
-59.82
-56.74
-52.59
-47.39
-41.20
-34.13
-26.24
-17.55
-8.02
2.53
14.31
27.57
42.43
58.68
75.63
92.04
106.30
116.75
122.18
122.11
116.98
107.99
96.73
84.78
73.37
63.34
55.15
48.99
44.83
42.42
41.15
40.10
38.17
34.40
28.39
20.43
11.53
3.03
-3.93
-8.84
-12.01
-14.41
-17.20
-21.18
-26.46
-32.35
-37.61
-40.96
-41.65
-39.74
-36.16
-32.40
-29.91
-29.73
-32.18
-36.95
-43.30
-50.40
-57.40
-63.50
-67.98
-70.16
-69.64
-66.36
-60.78
-53.72
-46.13
-38.76
-31.92
-25.43
-18.77
-11.35
-2.82
6.71
16.67
26.17
34.33
40.51
44.52
46.54
46.94
45.99
43.70
39.77
33.83
25.74
15.89
5.37
-4.28
-11.44
-15.02
-14.83
-11.80
-7.80
-5.09
-5.57
-10.14
-18.25
-28.10
-37.15
-43.06
-44.45
-41.30
-34.76
-26.62
-18.64
-11.83
-6.22
-0.59
7.37
20.72
42.23
72.94
110.77
149.89
181.83
197.91
192.44
164.88
120.22
67.05
14.45
-30.77
-65.45
-89.64
-105.10
-113.84
-117.32
-116.62
-112.97
-107.96
-103.33
-100.34
-99.09
-98.38
-96.02
-89.72
-77.93
-60.47
-38.51
-14.11
10.62
34.20
56.01
76.01
94.22
110.14
122.46
129.30
128.78
119.77
102.51
78.88
52.32
27.29
8.72
1.22
8.05
30.09
64.72
105.62
143.66
169.07
174.16
155.46
114.56
57.23
-8.36
-73.61
-130.88
-174.17
-199.64
-206.10
-195.53
-173.01
-145.63
-120.49
-102.37
-92.35
-87.81
-83.77
-74.77
-56.76
-28.47
7.84
46.63
80.27
101.28
104.93
91.19
64.96
34.38
7.73
-9.45
-15.69
-12.95
-4.64
6.27
18.15
30.29
41.95
51.65
57.42
57.56
51.42
39.65
24.04
6.87
-9.57
-23.26
-32.43
-35.54
-31.31
-18.95
1.54
29.06
61.26
94.58
124.68
147.15
158.20
155.51
138.69
109.36
71.03
28.51
-12.76
-47.40
-70.53
-78.33
-68.70
-42.23
-3.12
40.69
78.72
100.58
99.01
72.30
24.67
-35.36
-97.89
-154.47
-199.54
-230.38
-246.13
-246.97
-233.99
-209.58
-177.60
-142.73
-109.17
-79.10
-52.20
-26.26
1.07
30.43
59.60
83.76
96.91
94.12
73.63
37.92
-6.65
-51.73
-89.49
-115.04
-127.49
-129.37
-124.74
-117.04
-107.75
-96.46
-82.11
-64.44
-44.65
-25.03
-7.77
6.05
16.81
25.69
33.82
41.66
49.13
56.33
64.08
74.08
88.10
107.02
130.08
154.77
177.57
194.89
203.92
202.82
190.84
168.22
136.63
99.58
62.44
31.61
13.13
11.23
27.08
58.38
99.53
142.61
178.95
201.00
204.27
188.30
156.50
114.67
68.88
23.52
-19.36
-59.52
-97.19
-132.07
-163.19
-189.63
-211.12
-228.26
-241.73
-251.19
-254.85
-249.77
-232.71
-201.64
-156.93
-102.21
-44.77
5.35
37.63
44.51
24.69
-15.56
-64.16
-107.72
-136.70
-149.38
-151.48
-152.36
-159.76
-176.28
-198.94
-221.50
-237.54
-242.34
-233.84
-211.48
-174.81
-123.09
-56.37
22.87
109.08
194.54
271.60
333.75
377.53
403.41
415.72
420.62
423.50
427.44
432.54
436.84
435.87
424.05
396.71
352.12
291.80
220.00
143.22
65.77
-2.42
-50.85
-74.67
-80.18
-80.15
-86.55
-107.28
-144.31
-194.96
-252.64
-310.90
-365.21
-412.96
-452.05
-480.17
-495.18
-495.65
-481.66
-454.70
-418.16
-375.78
-329.79
-279.67
-223.03
-157.42
-81.90
1.86
89.62
174.28
247.30
301.26
332.71
343.64
341.00
334.39
332.64
340.50
356.65
374.37
384.62
379.95
357.37
318.86
270.11
217.97
168.16
123.83
85.67
52.90
24.70
0.66
-19.27
-35.23
-47.75
-57.59
-65.27
-70.68
-73.04
-71.31
-64.90
-54.07
-40.04
-24.76
-10.67
-0.28
4.01
0.47
-11.76
-32.26
-59.21
-89.53
-119.10
-143.20
-157.03
-156.74
-140.65
-110.74
-73.23
-37.69
-14.57
-11.64
-31.17
-68.95
-115.81
-160.93
-195.26
-213.74
-215.57
-203.15
-180.59
-152.62
-124.16
-99.81
-83.24
-76.16
-77.71
-84.59
-92.26
-96.21
-93.43
-83.25
-67.56
-50.26
-36.12
-29.09
-30.65
-38.87
-48.83
-54.52
-51.29
-37.75
-16.21
8.46
30.97
47.38
55.96
56.92
51.68
42.10
30.21
18.10
7.54
-0.40
-5.74
-9.63
-14.01
-21.03
-32.37
-48.59
-68.71
-89.95
-107.75
-116.47
-110.74
-87.11
-45.54
10.02
72.40
133.06
184.42
221.77
243.91
252.66
251.58
244.57
234.88
224.66
214.91
205.68
196.18
185.13
170.96
152.25
128.16
98.82
65.52
30.63
-2.70
-31.25
-52.51
-65.37
-70.30
-69.17
-64.59
-59.08
-54.27
-50.37
-46.35
-40.71
-32.61
-22.64
-12.85
-5.98
-4.13
-7.73
-15.34
-24.34
-32.25
-37.83
-41.28
-43.51
-44.98
-44.83
-41.10
-31.72
-15.86
5.40
29.29
52.45
72.29
87.90
100.09
110.47
120.40
130.03
138.28
143.35
143.62
138.39
128.23
114.81
100.38
87.09
76.39
68.64
62.97
57.40
49.04
34.56
10.92
-23.48
-67.53
-116.77
-163.91
-200.83
-221.29
-223.29
-209.84
-187.80
-165.27
-148.83
-141.83
-144.21
-153.59
-166.49
-179.11
-187.67
-188.50
-178.48
-155.66
-120.00
-73.60
-20.55
33.93
84.54
126.94
158.22
177.07
183.76
179.80
167.83
151.31
134.17
120.34
113.19
114.36
122.81
134.73
144.53
147.05
139.83
123.91
103.15
82.50
65.36
52.27
41.27
29.62
15.93
0.98
-12.88
-23.16
-27.74
-26.10
-19.26
-9.40
0.75
8.96
13.76
14.60
11.98
8.34
6.72
9.76
18.48
31.86
47.89
64.35
79.74
88.10
86.38
75.52
60.47
47.30
39.24
36.22
35.64
34.22
29.33
20.85
10.31
0.40
-4.31
-3.30
3.04
12.97
23.39
30.35
31.11
24.36
10.13
-11.03
-38.98
-73.04
-112.23
-153.99
-194.61
-229.37
-254.17
-266.59
-266.82
-257.41
-240.93
-218.80
-191.40
-158.63
-120.64
-79.09
-37.27
0.63
31.02
53.36
70.51
86.44
104.77
127.43
154.12
182.64
209.50
227.22
228.88
211.08
174.47
123.91
66.33
8.67
-43.34
-85.67
-116.40
-138.48
-152.73
-160.73
-164.49
-166.15
-167.08
-167.73
-167.84
-167.40
-166.86
-163.74
-159.28
-155.93
-155.70
-158.51
-162.64
-165.66
-165.75
-162.09
-154.38
-143.74
-130.97
-116.33
-98.86
-78.13
-54.69
-29.89
-4.87
20.39
45.80
71.57
97.56
124.42
151.82
178.69
203.73
226.14
246.26
264.67
282.46
300.76
321.54
344.43
366.31
382.37
388.52
383.78
369.89
350.27
317.15
267.35
201.63
125.34
46.55
-26.29
-85.93
-128.46
-153.96
-165.84
-167.52
-162.71
-153.94
-142.36
-130.22
-117.09
-101.82
-86.70
-74.83
-67.45
-65.38
-68.86
-77.75
-91.44
-108.35
-128.31
-149.20
-168.38
-182.64
-190.24
-190.88
-185.60
-176.06
-163.76
-150.36
-137.28
-125.81
-116.81
-111.70
-111.59
-116.68
-125.71
-135.66
-142.87
-144.12
-138.06
-123.03
-101.34
-77.21
-55.06
-38.13
-27.76
-23.87
-25.21
-29.86
-35.08
-37.61
-33.38
-18.68
8.33
46.41
90.89
134.92
171.26
194.58
202.33
195.25
176.31
149.17
117.37
84.12
52.77
26.82
9.41
1.99
3.75
11.70
21.81
30.78
37.38
42.62
48.71
57.37
68.54
80.29
89.78
94.66
94.05
88.80
80.84
72.31
64.86
59.35
56.04
54.84
55.32
56.65
57.42
55.92
50.67
41.06
27.83
12.86
-1.52
-13.41
-22.06
-27.88
-31.90
-35.20
-38.41
-41.60
-44.30
-45.65
-44.50
-39.58
-29.95
-15.46
2.70
21.93
38.73
49.76
52.88
47.83
36.23
20.75
4.16
-11.50
-25.24
-36.95
-46.97
-55.77
-63.69
-70.91
-77.51
-83.37
-88.10
-91.01
-91.38
-88.85
-83.97
-78.28
-73.98
-73.27
-77.46
-86.51
-99.11
-113.26
-127.01
-139.15
-149.33
-157.74
-164.68
-170.06
-173.29
-173.32
-169.04
-159.44
-143.88
-122.20
-94.82
-62.95
-28.53
5.88
37.76
65.17
87.39
104.88
118.96
131.15
142.34
152.68
161.72
168.94
174.15
177.47
179.10
179.04
177.12
173.09
167.01
159.19
149.76
138.07
122.57
101.19
72.35
35.94
-6.18
-50.55
-92.86
-129.19
-157.02
-175.46
-184.90
-186.31
-180.42
-167.61
-148.25
-122.66
-92.00
-58.14
-23.00
12.49
48.62
86.36
125.92
165.74
203.50
236.14
261.33
278.47
288.64
293.72
295.25
293.77
289.23
283.56
279.27
278.73
282.96
291.08
300.45
307.89
310.92
308.48
303.03
297.08
291.56
285.23
275.41
259.86
238.49
213.55
174.18
115.97
40.93
-41.66
-118.25
-176.78
-211.22
-222.85
-218.92
-206.88
-192.92
-179.48
-165.43
-148.18
-126.23
-101.01
-76.93
-59.58
-55.22
-64.23
-82.61
-104.08
-123.32
-138.29
-150.48
-163.38
-180.01
-200.90
-222.51
-239.73
-248.42
-247.32
-238.31
-225.06
-211.06
-198.26
-186.81
-175.17
-161.78
-146.32
-129.91
-114.60
-102.38
-94.27
-90.13
-88.99
-89.43
-90.36
-91.37
-92.62
-94.44
-96.78
-99.06
-100.27
-99.47
-96.12
-90.49
-83.58
-76.88
-71.90
-69.84
-71.42
-76.93
-86.39
-99.69
-116.71
-137.50
-162.16
-190.54
-221.50
-252.27
-278.41
-294.65
-296.49
-281.94
-252.47
-212.46
-167.53
-122.49
-79.70
-38.78
2.65
47.87
99.98
160.93
230.71
306.59
382.96
452.36
507.56
543.87
560.47
560.00
546.51
523.17
491.14
450.10
399.57
340.08
273.13
200.52
123.96
45.75
-30.04
-97.05
-148.02
-177.57
-184.98
-175.02
-156.22
-137.63
-125.63
-122.62
-127.97
-140.19
-158.43
-182.63
-212.42
-245.78
-279.05
-307.98
-329.43
-342.51
-348.26
-348.09
-341.82
-327.46
-301.91
-263.37
-213.47
-157.70
-103.35
-56.20
-17.92
14.52
46.96
85.24
132.59
188.61
250.14
312.81
372.71
427.08
474.38
513.84
545.11
567.90
581.91
586.79
582.22
568.35
546.11
517.52
485.25
452.12
420.42
391.85
368.18
350.94
341.28
339.23
342.80
347.63
347.80
337.96
315.84
283.86
248.49
217.51
196.42
185.90
181.81
177.61
167.55
149.13
123.11
91.83
57.19
19.91
-19.69
-60.19
-98.29
-129.64
-150.88
-161.63
-165.00
-166.22
-170.26
-179.72
-193.90
-209.73
-223.59
-233.17
-238.27
-240.43
-241.78
-244.13
-248.66
-256.17
-267.44
-283.18
-303.62
-328.04
-354.45
-380.18
-402.79
-421.01
-434.73
-444.61
-451.18
-454.33
-453.37
-447.59
-436.88
-421.81
-403.28
-381.93
-358.04
-331.76
-303.82
-275.93
-250.54
-229.89
-214.99
-204.82
-196.51
-186.31
-170.86
-148.31
-118.64
-83.45
-45.33
-7.05
28.93
60.75
87.24
107.78
122.29
131.06
134.72
134.09
130.18
124.12
117.10
110.35
104.97
101.76
101.00
102.49
105.67
109.90
114.66
119.58
124.29
128.19
130.35
129.57
124.84
115.69
102.41
86.00
67.82
49.19
31.15
14.45
-0.35
-12.83
-22.67
-29.90
-34.96
-38.68
-42.00
-45.66
-49.90
-54.58
-59.39
-64.19
-69.22
-74.92
-81.56
-88.78
-95.35
-99.42
-99.01
-92.75
-80.28
-62.40
-40.84
-17.85
4.15
22.94
36.68
44.29
45.69
41.98
35.17
27.66
21.60
18.38
18.48
21.82
27.95
36.33
46.28
56.77
66.26
72.86
74.64
70.28
59.61
43.85
25.40
7.19
-8.32
-20.04
-28.75
-37.03
-48.34
-65.83
-90.86
-122.10
-155.22
-183.75
-200.75
-201.07
-183.14
-149.70
-106.90
-62.19
-21.82
10.80
35.26
53.08
66.07
75.25
80.60
81.65
78.09
70.11
58.09
42.33
23.03
0.81
-22.48
-43.48
-57.78
-61.39
-52.52
-32.91
-8.12
13.90
25.19
20.56
-0.71
-34.76
-74.91
-114.20
-147.65
-172.88
-189.50
-197.50
-196.16
-183.84
-158.73
-119.82
-67.44
-3.34
69.31
145.82
219.95
284.46
332.54
359.98
366.61
356.35
335.52
310.05
282.95
253.52
218.75
176.29
127.29
77.56
36.31
13.12
14.63
42.35
92.48
157.39
227.81
294.81
350.67
389.17
405.81
398.26
367.25
316.97
254.41
187.70
123.86
67.12
18.47
-23.60
-61.66
-97.74
-132.28
-164.10
-190.99
-210.80
-222.38
-226.08
-223.86
-218.73
-214.03
-212.57
-215.84
-223.47
-233.13
-240.92
-242.38
-233.67
-212.78
-180.15
-138.82
-93.80
-51.19
-17.17
2.91
5.33
-11.36
-45.99
-94.76
-151.63
-209.41
-261.08
-301.21
-327.07
-338.93
-339.49
-332.54
-321.50
-308.30
-293.14
-275.33
-254.13
-229.34
-201.31
-170.51
-137.00
-100.34
-59.89
-15.42
32.29
81.78
131.77
182.06
233.57
287.12
341.95
394.60
439.35
469.41
479.41
467.34
435.24
388.15
331.89
271.96
213.16
160.41
117.85
88.55
73.82
72.75
82.00
95.72
107.67
112.94
109.92
97.77
76.17
45.09
5.63
-39.94
-89.60
-140.55
-188.97
-228.47
-254.60
-265.44
-262.28
-248.90
-231.55
-219.66
-222.07
-243.70
-281.33
-328.56
-377.28
-419.77
-449.29
-450.53
-413.79
-338.45
-248.35
-156.13
-67.83
16.51
94.17
163.00
222.42
271.81
311.56
342.66
368.56
390.12
406.33
415.20
415.72
407.60
389.67
361.45
324.22
283.48
244.49
210.86
183.02
158.85
134.52
105.96
72.07
36.04
5.63
-11.60
-10.69
9.37
46.02
93.66
144.20
188.78
219.49
231.63
223.81
198.37
160.42
116.21
70.72
26.07
-17.99
-62.30
-105.83
-144.99
-174.39
-189.17
-187.52
-172.26
-150.29
-130.43
-120.70
-125.95
-146.96
-180.88
-222.19
-263.97
-298.91
-320.01
-321.33
-298.90
-251.64
-182.25
-97.49
-7.62
75.02
138.60
174.78
181.14
161.93
126.56
86.04
49.21
20.07
-2.37
-22.03
-42.80
-66.05
-89.75
-109.20
-119.03
-115.19
-96.36
-64.34
-23.44
20.66
61.99
95.25
116.44
123.36
115.97
96.58
69.25
38.83
9.43
-16.38
-37.49
-53.42
-63.01
-63.88
-52.73
-27.04
12.95
62.76
114.00
156.27
180.35
181.08
158.71
118.13
66.34
9.72
-47.73
-104.27
-158.68
-208.33
-248.55
-273.77
-279.90
-266.30
-236.16
-195.04
-148.84
-102.37
-59.28
-22.60
4.54
19.21
19.75
6.88
-15.95
-43.37
-69.65
-90.16
-102.09
-104.20
-96.02
-77.21
-47.54
-7.38
41.53
95.73
150.21
199.29
237.82
262.40
272.00
267.94
253.15
231.25
205.69
179.35
154.25
131.50
111.17
92.25
72.85
50.76
24.31
-6.92
-41.63
-76.89
-108.66
-132.58
-145.07
-144.25
-130.58
-106.84
-77.25
-46.16
-16.64
10.29
35.41
60.16
85.30
110.09
132.38
149.50
159.37
161.16
155.27
142.77
124.61
101.32
73.09
40.18
3.48
-35.26
-73.47
-108.03
-135.81
-154.24
-161.81
-158.36
-145.12
-124.44
-99.39
-73.30
-49.19
-29.06
-13.03
1.20
18.10
42.93
79.38
127.14
180.92
231.50
268.81
285.56
279.63
254.15
215.37
169.76
121.88
74.05
27.51
-16.24
-54.68
-84.95
-104.89
-114.04
-113.53
-105.22
-90.73
-71.06
-46.97
-19.83
7.98
33.37
53.39
66.17
71.16
68.69
59.32
43.50
21.92
-3.84
-30.87
-55.33
-73.75
-84.43
-88.23
-88.04
-87.45
-89.26
-94.64
-103.33
-114.36
-126.64
-139.12
-150.44
-158.67
-161.55
-157.22
-145.08
-126.21
-103.09
-78.87
-56.56
-38.44
-25.89
-19.27
-17.95
-20.31
-24.05
-26.64
-26.03
-21.22
-12.42
-0.87
11.70
23.58
33.47
40.54
44.20
43.91
39.03
29.14
14.42
-3.89
-23.46
-41.21
-54.05
-59.81
-57.76
-48.74
-34.78
-18.48
-2.37
11.43
21.50
27.11
28.20
25.32
19.46
11.93
4.03
-3.18
-9.05
-13.56
-17.10
-20.17
-22.94
-24.98
-25.42
-23.31
-18.23
-10.74
-2.42
4.43
7.35
4.58
-4.17
-17.22
-31.03
-41.06
-43.33
-35.92
-19.84
1.17
21.90
37.42
44.56
42.58
32.78
17.64
-0.17
-18.35
-35.27
-49.85
-61.50
-70.06
-75.64
-78.53
-78.95
-77.03
-72.74
-65.95
-56.68
-45.35
-33.10
-21.74
-13.47
-10.04
-11.76
-16.77
-21.11
-19.55
-7.16
19.12
59.23
109.53
163.35
212.35
248.51
266.14
263.18
241.52
205.98
162.63
116.88
72.39
30.83
-7.27
-41.53
-71.08
-94.65
-111.29
-121.03
-125.13
-125.69
-125.06
-125.23
-127.43
-132.34
-140.25
-151.38
-165.84
-183.25
-202.28
-220.41
-234.02
-239.08
-232.12
-211.42
-177.90
-135.44
-90.37
-50.02
-20.76
-6.03
-5.23
-13.97
-25.68
-33.94
-34.59
-26.91
-13.37
1.96
15.45
25.53
33.34
41.87
54.34
72.40
95.14
119.30
140.62
155.61
162.83
163.21
159.38
154.42
150.86
150.15
152.76
158.27
165.24
170.89
171.35
162.68
142.81
113.34
79.92
50.74
33.10
30.18
39.28
53.13
63.34
64.10
54.27
36.79
16.22
-3.93
-22.36
-39.41
-55.65
-70.54
-82.39
-89.22
-89.88
-84.55
-74.54
-61.64
-47.53
-33.47
-20.17
-7.68
4.46
16.82
29.47
41.29
49.89
52.17
45.58
29.39
5.59
-21.30
-45.19
-60.04
-61.56
-48.42
-22.59
11.06
45.94
75.37
94.05
99.24
90.91
71.22
43.47
11.07
-23.24
-57.46
-89.81
-117.88
-138.01
-145.52
-136.11
-107.59
-61.58
-3.84
56.81
110.74
149.87
169.40
168.29
148.96
116.35
76.96
37.64
4.51
-18.32
-29.62
-30.95
-25.58
-16.75
-5.85
8.53
30.09
62.86
108.57
164.42
222.79
272.92
304.21
309.61
287.58
241.81
178.85
105.32
26.00
-55.96
-137.63
-214.72
-281.25
-330.89
-359.23
-365.41
-352.15
-324.03
-285.13
-237.39
-180.75
-114.76
-41.05
35.19
105.80
162.29
199.26
216.86
220.84
220.06
222.57
231.98
246.02
257.76
258.99
243.90
211.46
165.45
112.55
59.56
11.18
-30.60
-65.69
-94.32
-115.89
-128.92
-131.91
-124.75
-109.59
-90.69
-73.17
-61.38
-57.50
-61.15
-69.84
-80.16
-89.24
-95.89
-101.06
-107.34
-117.42
-132.50
-150.93
-168.17
-178.22
-175.64
-157.16
-122.32
-73.06
-13.01
52.88
118.33
175.85
217.83
238.39
235.34
211.09
171.67
124.26
74.47
24.90
-24.37
-73.94
-123.23
-169.58
-208.92
-237.39
-252.64
-254.19
-242.73
-219.29
-184.94
-141.23
-91.29
-40.45
4.35
36.31
51.13
48.69
33.25
12.26
-6.01
-14.78
-10.42
6.72
32.79
61.86
88.16
108.28
122.20
132.59
142.50
153.12
162.74
167.88
165.68
155.94
141.61
127.19
116.30
110.02
107.10
105.47
103.82
101.96
99.90
96.46
88.93
74.22
50.74
19.75
-14.69
-47.27
-73.45
-90.72
-98.78
-98.40
-90.53
-75.82
-55.21
-30.83
-6.43
13.25
23.87
23.04
11.08
-9.30
-33.98
-58.61
-79.22
-92.65
-96.74
-90.91
-76.62
-57.46
-38.40
-24.21
-17.85
-19.50
-26.95
-36.93
-46.66
-54.81
-61.49
-67.39
-73.03
-78.28
-82.63
-85.50
-86.65
-86.08
-83.76
-79.38
-72.31
-61.93
-48.03
-31.13
-12.43
6.57
24.54
40.59
54.29
65.36
73.51
78.30
79.40
76.89
71.49
64.27
56.35
48.26
39.88
30.60
19.99
8.30
-3.33
-13.20
-19.72
-22.10
-20.63
-16.54
-11.55
-7.31
-5.05
-5.36
-8.27
-13.26
-19.40
-25.57
-30.76
-34.50
-37.12
-39.63
-43.23
-48.56
-55.03
-60.64
-62.49
-57.93
-45.82
-27.35
-6.06
13.21
25.86
29.08
22.60
8.44
-10.03
-29.42
-47.12
-61.58
-72.10
-78.48
-80.90
-79.95
-76.67
-72.27
-67.75
-63.34
-58.37
-51.40
-40.77
-25.17
-4.16
21.42
49.32
76.01
97.59
110.94
115.16
112.10
105.76
100.45
98.69
100.01
101.38
99.15
91.29
78.59
64.18
51.56
42.71
37.15
32.68
27.04
19.45
10.96
3.69
-0.65
-1.88
-1.41
-1.36
-3.17
-6.64
-9.81
-9.75
-3.97
8.62
27.27
49.80
73.31
94.81
111.54
120.98
120.97
110.11
88.40
57.75
21.82
-14.73
-47.54
-73.45
-91.09
-100.47
-102.38
-97.79
-87.73
-73.39
-56.44
-38.96
-23.07
-10.41
-1.67
3.51
6.23
7.86
9.45
11.42
13.61
15.52
16.84
17.75
19.01
21.60
26.23
32.91
40.87
48.79
55.24
59.05
59.34
55.51
47.15
34.15
17.06
-2.77
-23.25
-42.04
-57.09
-67.21
-72.21
-72.66
-69.60
-64.11
-57.23
-49.82
-42.71
-36.64
-32.28
-30.17
-30.66
-33.97
-39.98
-48.16
-57.42
-66.29
-73.23
-77.20
-78.07
-76.70
-74.65
-73.46
-74.00
-76.08
-78.66
-80.26
-79.54
-75.72
-68.65
-58.75
-46.80
-33.89
-21.23
-10.00
-1.14
4.93
8.27
9.31
8.55
6.35
2.79
-2.14
-8.35
-15.32
-22.11
-27.28
-29.08
-25.60
-15.05
3.75
30.88
64.84
102.60
140.02
172.89
197.85
213.08
218.35
214.57
203.15
185.42
162.60
135.95
107.15
78.41
52.22
30.78
15.50
6.62
3.24
3.67
5.91
8.14
8.93
7.30
2.56
-5.87
-18.55
-35.87
-57.89
-83.97
-112.57
-141.30
-167.15
-187.29
-199.82
-204.59
-203.41
-199.60
-196.69
-197.04
-200.66
-205.23
-207.04
-202.55
-189.75
-168.67
-141.31
-111.01
-81.86
-58.15
-43.63
-40.64
-49.04
-65.76
-85.30
-101.21
-108.03
-102.72
-85.11
-57.20
-21.98
17.50
58.47
98.16
133.51
160.99
177.17
179.64
168.26
146.13
119.66
97.34
87.68
96.85
126.85
175.25
235.68
299.14
355.52
394.89
408.80
392.01
344.05
270.47
182.78
96.44
27.35
-12.01
-15.44
15.93
74.31
147.10
219.25
275.81
304.53
298.35
256.94
186.45
97.53
2.12
-89.73
-171.58
-240.56
-296.37
-340.32
-374.84
-403.51
-429.89
-455.44
-477.45
-488.52
-478.70
-439.82
-369.80
-275.13
-170.00
-72.36
0.97
39.02
39.47
9.16
-37.74
-83.70
-112.84
-115.58
-90.96
-46.08
7.54
58.98
101.83
135.64
164.67
194.97
230.95
273.13
317.67
357.95
387.52
402.42
402.43
389.95
367.87
337.58
298.55
249.82
192.11
129.23
67.27
12.55
-32.20
-69.42
-105.29
-145.49
-191.16
-236.88
-272.23
-286.66
-273.55
-234.36
-178.17
-117.32
-61.67
-14.90
25.67
66.40
112.09
163.89
216.65
260.78
286.31
287.28
263.74
221.91
173.30
130.96
107.53
109.25
133.49
169.49
203.06
221.33
218.16
196.41
152.49
91.14
21.82
-45.08
-103.09
-150.96
-188.06
-218.96
-245.89
-269.01
-285.45
-292.80
-289.48
-274.10
-245.62
-206.09
-158.53
-105.91
-50.86
6.74
68.06
134.17
198.92
265.87
327.81
376.10
402.40
400.68
370.02
314.22
240.58
157.18
71.32
-14.42
-99.14
-181.86
-259.96
-328.64
-383.45
-423.27
-451.56
-474.10
-497.15
-521.71
-542.84
-551.95
-541.37
-508.61
-457.61
-396.36
-332.19
-269.62
-208.58
-147.30
-85.59
-26.38
25.69
67.75
101.56
134.25
174.47
228.05
293.60
361.82
419.55
456.07
468.27
461.77
447.02
433.08
423.49
415.70
404.36
385.49
358.83
327.05
293.10
257.86
219.57
175.82
125.97
72.54
20.80
-23.35
-55.80
-75.65
-85.69
-92.63
-105.37
-132.52
-179.05
-243.00
-314.67
-379.04
-420.40
-427.67
-398.70
-339.83
-263.23
-183.01
-112.30
-61.65
-37.68
-41.25
-66.22
-101.63
-134.82
-156.77
-165.83
-167.76
-172.10
-186.49
-212.24
-235.65
-240.40
-214.49
-158.11
-83.76
-7.74
58.91
113.60
159.41
200.08
235.50
262.31
276.23
275.42
262.67
243.32
223.59
208.25
199.19
194.32
189.09
178.84
160.54
134.64
104.48
74.70
49.06
28.85
15.62
8.17
4.23
0.69
-3.72
-8.22
-10.62
-8.87
-2.46
7.05
16.65
22.73
20.34
6.97
-16.51
-46.00
-76.28
-103.15
-124.66
-141.03
-154.77
-171.67
-195.78
-227.53
-263.09
-296.43
-322.06
-336.57
-338.84
-311.23
-245.85
-147.80
-34.40
75.30
169.80
246.40
304.27
350.04
385.87
407.50
409.94
390.36
349.76
294.11
233.40
180.25
147.78
143.80
165.77
202.41
237.37
255.06
245.62
207.52
147.67
79.29
16.97
-28.21
-50.19
-49.15
-31.19
-6.90
11.52
14.43
-1.04
-29.98
-61.77
-82.88
-81.09
-48.38
17.23
110.94
221.79
334.37
431.20
496.77
521.69
504.80
452.98
378.17
293.31
208.55
129.65
58.16
-6.61
-65.43
-118.16
-163.99
-202.20
-232.89
-256.97
-275.57
-289.21
-297.43
-298.88
-292.53
-278.56
-259.22
-238.59
-221.70
-213.04
-215.63
-230.37
-256.04
-289.45
-325.51
-357.83
-379.99
-387.39
-379.02
-358.23
-331.59
-306.09
-286.42
-273.10
-263.26
-252.93
-239.77
-224.36
-209.85
-199.90
-196.47
-198.56
-201.97
-200.41
-187.16
-157.50
-111.20
-53.71
4.75
52.83
82.72
93.73
92.22
87.99
88.75
96.34
106.77
113.91
114.19
108.94
103.06
100.76
102.08
102.05
93.49
71.40
35.75
-9.06
-57.43
-105.70
-153.59
-202.54
-252.75
-300.96
-340.78
-365.62
-372.15
-362.35
-342.56
-320.67
-302.76
-291.45
-285.85
-283.11
-280.35
-275.79
-268.79
-259.01
-246.05
-229.12
-208.10
-183.14
-154.43
-122.23
-86.70
-48.16
-6.87
36.30
80.34
123.10
162.82
199.15
233.32
267.29
302.07
336.90
367.87
389.36
394.34
377.98
340.00
285.23
222.12
159.87
106.18
64.38
42.63
43.18
60.82
84.89
105.47
118.73
123.08
125.49
131.92
145.36
164.53
185.42
203.27
211.16
202.44
173.62
127.84
74.54
26.67
-5.42
-17.57
-11.81
5.60
28.69
54.76
85.10
121.86
163.80
203.79
230.96
236.70
218.63
182.43
139.44
97.98
65.64
45.54
37.45
33.75
28.05
16.77
0.20
-20.49
-45.20
-74.52
-109.08
-147.46
-185.56
-216.58
-234.28
-235.45
-220.85
-193.75
-157.00
-112.22
-59.78
-0.52
63.48
127.83
186.97
235.99
272.17
295.54
307.32
308.45
298.90
278.58
247.87
208.63
164.29
119.19
77.59
42.28
14.01
-8.26
-26.51
-42.81
-58.81
-75.36
-92.45
-109.14
-124.12
-136.25
-145.08
-150.94
-154.26
-154.58
-149.60
-135.44
-108.26
-66.76
-14.11
41.71
90.03
121.24
130.12
117.42
88.76
51.63
12.13
-26.91
-65.91
-107.52
-154.59
-208.85
-270.18
-336.28
-402.60
-462.73
-509.53
-536.98
-542.56
-527.77
-497.57
-458.43
-415.95
-373.26
-330.95
-288.15
-244.52
-201.68
-162.21
-127.83
-98.19
-70.34
-39.82
-2.46
44.49
100.83
162.31
223.68
281.24
333.00
378.66
418.78
454.00
486.10
517.22
546.86
574.45
600.17
621.97
635.16
632.97
608.58
559.67
488.57
397.14
