1582803906.00
64.000000
-0.00
-0.00
-0.00
-0.00
-0.00
-0.00
-0.00
-0.00
-0.00
-0.00
0.00
0.01
0.01
-0.00
-0.03
-0.05
-0.05
0.00
0.13
0.36
0.66
1.01
1.37
1.72
2.06
2.40
2.79
3.24
3.80
4.42
5.06
5.66
6.20
6.68
7.15
7.68
8.31
9.14
10.09
11.04
11.88
12.56
13.14
13.76
14.65
15.96
17.91
20.32
22.90
25.38
27.58
29.57
31.68
34.32
37.81
42.54
48.15
54.10
59.83
64.97
69.58
74.14
79.34
85.71
93.76
103.00
112.62
121.73
129.77
136.75
143.30
150.75
157.77
166.64
177.95
191.79
206.97
220.57
228.25
225.36
208.53
176.87
132.76
80.05
23.07
-34.94
-92.44
-149.16
-205.23
-260.37
-313.74
-363.87
-409.83
-450.91
-486.50
-515.74
-537.23
-549.22
-549.96
-538.37
-514.21
-478.67
-433.88
-382.45
-327.02
-269.84
-212.63
-156.66
-102.95
-52.37
-5.90
35.58
71.43
101.35
125.50
144.38
158.69
169.15
176.37
180.75
182.57
182.07
179.51
175.23
169.65
163.18
156.15
148.81
141.30
133.69
126.02
118.33
110.69
103.16
95.80
88.68
81.83
75.25
68.95
62.95
57.25
51.86
46.78
42.03
37.59
33.45
29.61
26.07
22.81
19.83
17.11
14.67
12.48
10.54
8.83
7.35
6.07
4.97
4.05
3.27
2.62
2.09
1.65
1.30
1.01
0.79
0.61
0.47
0.37
0.28
0.22
0.18
0.14
0.12
0.11
0.11
0.12
0.13
0.15
0.17
0.20
0.24
0.28
0.32
0.37
0.42
0.46
0.51
0.57
0.62
0.67
0.73
0.79
0.86
0.93
1.01
1.10
1.20
1.31
1.42
1.56
1.71
1.88
2.06
2.27
2.50
2.76
3.05
3.36
3.71
4.09
4.50
4.95
5.45
5.97
6.55
7.16
7.81
8.52
9.26
10.06
10.89
11.78
12.70
13.68
14.71
15.81
16.96
18.18
19.45
20.75
22.03
23.24
24.30
25.07
25.45
25.30
24.52
23.01
20.73
17.72
13.99
9.69
4.99
0.09
-4.77
-9.36
-13.46
-16.92
-19.64
-21.58
-22.76
-23.25
-23.14
-22.52
-21.45
-20.02
-18.30
-16.36
-14.26
-12.05
-9.79
-7.50
-5.18
-2.76
-0.23
2.43
5.15
7.90
10.61
13.12
15.36
17.40
19.33
21.27
23.24
25.20
27.05
28.71
29.90
30.62
31.08
31.64
32.60
34.10
36.00
38.05
39.96
41.13
41.44
41.20
40.97
41.27
42.31
43.86
45.40
46.39
45.87
43.56
39.71
34.83
29.23
22.57
13.64
0.07
-16.28
-35.84
-59.16
-86.42
-116.79
-148.12
-176.84
-198.73
-210.10
-208.99
-196.72
-176.68
-153.19
-130.16
-110.00
-93.43
-80.06
-69.11
-59.95
-52.69
-47.14
-42.68
-38.39
-33.42
-27.43
-20.79
-14.39
-9.32
-6.60
-6.28
-7.26
-7.46
-4.33
4.33
19.46
40.28
64.18
87.14
104.91
114.08
112.88
101.60
82.46
59.14
36.13
17.94
8.40
10.02
23.50
47.33
77.83
109.63
136.66
153.54
156.84
145.93
123.11
92.86
60.62
31.45
8.94
-5.38
-12.12
-13.61
-13.25
-14.55
-20.23
-31.51
-47.84
-67.25
-87.05
-104.68
-118.29
-126.93
-130.39
-128.90
-122.97
-113.38
-101.16
-87.66
-74.22
-62.00
-51.71
-43.49
-36.97
-31.33
-25.40
-17.93
-7.87
5.11
20.28
35.91
49.59
59.03
62.70
60.21
52.26
40.34
26.43
12.75
1.60
-4.89
-5.31
0.59
11.58
25.30
38.92
50.08
57.50
61.08
61.62
60.17
57.66
54.66
51.46
48.15
44.74
41.18
37.37
33.27
29.01
24.95
21.60
19.42
18.51
18.36
17.88
15.56
9.97
0.36
-12.85
-27.88
-42.01
-52.34
-56.73
-54.58
-46.87
-35.78
-23.85
-13.37
-5.99
-2.71
-3.87
-9.21
-17.74
-27.74
-36.90
-42.72
-43.02
-36.48
-22.87
-3.23
20.27
44.67
66.66
83.23
92.27
92.97
85.84
72.45
54.90
35.27
15.33
-3.71
-21.07
-36.38
-49.54
-60.66
-70.15
-78.76
-87.51
-97.45
-109.33
-123.22
-138.21
-152.35
-162.96
-167.19
-162.76
-148.65
-125.57
-95.94
-63.40
-31.88
-4.67
16.46
31.49
41.90
49.79
56.92
63.99
70.48
75.11
76.63
74.59
69.53
62.82
55.93
49.89
44.94
40.72
36.72
32.65
28.55
24.69
21.33
18.59
16.46
14.88
13.71
12.85
12.17
11.57
11.00
10.53
10.31
10.51
11.32
12.96
15.71
19.94
25.91
33.55
42.26
50.87
57.87
61.92
62.26
59.09
53.48
47.13
41.78
38.69
38.32
40.19
43.10
45.55
46.17
44.08
39.07
31.51
22.12
11.81
1.52
-7.95
-15.89
-21.85
-25.66
-27.45
-27.57
-26.39
-24.25
-21.39
-18.06
-14.65
-11.69
-9.84
-9.71
-11.67
-15.82
-21.85
-29.14
-36.86
-44.04
-49.76
-53.38
-54.55
-53.39
-50.32
-46.02
-41.18
-36.47
-32.35
-29.08
-26.69
-24.97
-23.57
-22.04
-19.96
-17.06
-13.36
-9.14
-4.88
-1.00
2.35
5.35
8.48
12.10
16.24
20.41
23.79
25.54
25.14
22.61
18.45
13.42
8.36
4.00
0.87
-0.70
-0.62
0.90
3.41
6.24
8.76
10.52
11.44
11.74
11.92
12.40
13.31
14.48
15.38
15.50
14.47
12.24
9.08
5.38
1.62
-1.77
-4.30
-5.65
-5.64
-4.36
-2.25
0.12
2.18
3.55
4.11
3.92
3.13
1.91
0.44
-1.04
-2.20
-2.72
-2.45
-1.45
0.05
1.69
3.27
4.71
6.10
7.55
9.06
10.47
11.51
11.91
11.53
10.39
8.65
6.53
4.31
2.26
0.68
-0.16
-0.04
1.05
2.93
5.20
7.42
9.27
10.64
11.69
12.68
13.82
15.10
16.30
17.01
16.80
15.32
12.40
8.08
2.63
-3.51
-9.72
-15.37
-19.84
-22.73
-23.91
-23.50
-21.85
-19.35
-16.33
-13.02
-9.51
-5.89
-2.24
1.34
4.69
7.72
10.35
12.58
14.38
15.73
16.49
16.48
15.55
13.58
10.68
7.07
3.15
-0.66
-3.99
-6.52
-8.02
-8.32
-7.32
-5.09
-1.88
1.85
5.46
8.32
9.97
10.22
9.14
6.94
3.77
-0.33
-5.38
-11.32
-17.82
-24.28
-29.99
-34.31
-36.92
-37.87
-37.52
-36.38
-34.88
-33.30
-31.76
-30.19
-28.42
-26.10
-22.80
-18.13
-11.87
-4.14
4.59
13.59
22.07
29.43
35.33
39.76
42.89
45.01
46.49
47.70
48.99
50.51
51.97
52.52
50.92
45.98
37.07
24.51
9.57
-6.02
-20.61
-33.09
-42.95
-50.20
-55.08
-58.05
-59.77
-61.17
-63.17
-66.27
-70.27
-74.18
-76.64
-76.65
-74.01
-69.46
-64.19
-59.12
-54.27
-48.64
-40.67
-29.07
-13.50
5.13
24.96
43.68
58.93
68.53
70.63
64.04
48.85
26.96
2.02
-21.32
-38.87
-48.22
-49.37
-44.16
-35.12
-24.21
-12.27
0.74
15.02
30.32
45.77
60.18
72.47
82.09
89.06
93.80
96.89
98.85
99.97
100.50
100.69
100.99
101.88
103.64
106.01
108.14
108.74
106.58
101.01
92.18
80.89
68.25
55.23
42.53
30.53
19.47
9.51
0.72
-6.97
-13.77
-19.93
-25.55
-30.55
-34.72
-37.98
-40.52
-42.93
-46.02
-50.57
-57.09
-65.72
-76.24
-88.19
-100.83
-113.29
-124.56
-133.83
-140.68
-145.33
-148.47
-150.90
-153.00
-154.36
-153.86
-150.05
-141.59
-127.69
-108.27
-83.90
-55.78
-25.58
4.62
32.61
56.37
74.55
86.70
93.37
95.82
95.61
94.16
92.45
90.85
89.19
86.83
82.97
77.00
68.76
58.76
48.03
37.84
29.28
22.87
18.44
15.29
12.66
9.96
7.14
4.60
2.93
2.56
3.57
5.58
8.04
10.32
12.04
13.09
13.53
13.53
13.19
12.56
11.67
10.62
9.56
8.70
8.24
8.24
8.58
8.95
8.92
8.12
6.41
3.96
1.30
-0.89
-1.99
-1.74
-0.32
1.74
3.80
5.38
6.30
6.60
6.35
5.53
3.97
1.53
-1.71
-5.40
-9.06
-12.25
-14.79
-16.78
-18.42
-19.89
-21.13
-22.00
-22.29
-21.97
-21.24
-20.41
-19.77
-19.49
-19.53
-19.65
-19.59
-19.05
-17.90
-16.16
-13.97
-11.53
-8.96
-6.35
-3.71
-1.07
1.49
3.80
5.72
7.17
8.27
9.23
10.30
11.68
13.45
15.57
17.94
20.35
22.54
24.13
24.60
23.45
20.23
14.78
7.21
-2.01
-12.23
-22.69
-32.69
-41.61
-48.86
-53.95
-56.43
-56.08
-53.02
-47.81
-41.62
-35.87
-31.93
-30.64
-31.90
-34.71
-37.54
-38.82
-37.48
-33.24
-26.48
-18.02
-8.76
0.45
8.90
15.97
21.18
24.28
25.36
24.87
23.44
21.67
19.97
18.45
17.10
15.91
14.98
14.42
14.31
14.59
15.03
15.42
15.67
15.87
16.17
16.66
17.23
17.53
17.18
15.92
13.79
11.06
8.19
5.54
3.32
1.52
0.10
-0.97
-1.56
-1.41
-0.17
2.52
6.94
13.19
21.13
30.40
40.45
50.53
59.77
67.17
71.84
73.09
70.83
65.51
58.13
49.77
41.19
32.60
23.72
14.17
3.92
-6.46
-16.04
-23.78
-29.08
-31.81
-32.32
-31.10
-28.63
-25.30
-21.53
-17.77
-14.47
-11.98
-10.33
-9.25
-8.31
-7.13
-5.54
-3.68
-1.85
-0.35
0.60
1.03
1.16
1.30
1.78
2.83
4.55
6.89
9.61
12.35
14.64
16.06
16.27
15.14
12.77
9.37
5.26
0.75
-3.93
-8.63
-13.19
-17.45
-21.14
-24.02
-25.91
-26.78
-26.80
-26.28
-25.60
-25.07
-24.85
-24.87
-24.90
-24.64
-23.78
-22.18
-19.83
-16.89
-13.54
-10.05
-6.65
-3.53
-0.82
1.46
3.39
5.14
6.88
8.70
10.54
12.24
13.57
14.31
14.41
13.96
13.14
12.16
11.17
10.15
8.95
7.37
5.22
2.46
-0.85
-4.51
-8.33
-12.17
-15.94
-19.64
-23.29
-26.85
-30.22
-33.21
-35.59
-37.06
-37.35
-36.23
-33.56
-29.32
-23.67
-16.88
-9.36
-1.62
5.81
12.42
17.78
21.63
23.93
24.77
24.45
23.25
21.48
19.45
17.37
15.43
13.72
12.28
11.10
10.15
9.43
8.93
8.65
8.53
8.54
8.67
8.95
9.45
10.21
11.19
12.19
12.97
13.28
13.01
12.22
11.12
9.97
8.98
8.26
7.76
7.40
7.07
6.74
6.47
6.33
6.45
6.85
7.47
8.23
9.03
9.82
10.59
11.32
11.91
12.24
12.12
11.42
10.16
8.48
6.64
4.91
3.48
2.46
1.85
1.61
1.71
2.18
3.08
4.47
6.36
8.62
11.00
13.21
15.00
16.34
17.32
18.18
19.11
20.18
21.25
22.12
22.62
22.79
22.83
23.06
23.64
24.42
24.86
24.14
21.52
16.52
9.18
-0.02
-10.21
-20.44
-29.82
-37.67
-43.62
-47.54
-49.53
-49.80
-48.56
-45.97
-42.14
-37.21
-31.48
-25.54
-20.19
-16.30
-14.48
-14.85
-16.89
-19.52
-21.44
-21.60
-19.54
-15.63
-10.73
-5.97
-2.29
-0.29
-0.31
-2.51
-6.86
-13.13
-20.73
-28.73
-36.10
-41.99
-46.00
-48.17
-48.70
-47.77
-45.35
-41.35
-35.79
-28.89
-21.13
-12.92
-4.54
3.91
12.29
20.24
27.15
32.32
35.25
35.94
34.84
32.75
30.32
27.90
25.38
22.42
18.71
14.22
9.23
4.24
-0.30
-4.07
-6.87
-8.58
-9.07
-8.23
-6.11
-3.02
0.37
3.24
4.80
4.60
2.71
-0.35
-3.72
-6.57
-8.29
-8.65
-7.80
-6.12
-4.11
-2.23
-0.87
-0.26
-0.56
-1.76
-3.68
-6.02
-8.41
-10.59
-12.46
-14.04
-15.37
-16.32
-16.54
-15.64
-13.39
-9.95
-5.95
-2.20
0.57
2.06
2.44
2.34
2.53
3.66
6.13
9.98
14.92
20.39
25.69
30.20
33.68
36.40
38.92
41.69
44.48
46.17
45.06
39.69
29.67
16.08
1.11
-12.85
-24.19
-32.48
-38.24
-42.28
-45.11
-46.79
-47.31
-46.96
-46.42
-46.50
-47.59
-49.35
-50.85
-51.03
-49.20
-45.31
-39.81
-33.34
-26.50
-19.87
-14.17
-10.37
-9.38
-11.61
-16.49
-22.38
-26.93
-27.78
-23.28
-12.88
2.84
22.43
43.92
64.90
82.88
95.46
100.87
98.48
89.15
75.19
59.87
46.52
37.74
34.70
36.95
42.70
49.32
54.10
54.85
50.41
40.87
27.50
12.44
-1.92
-13.57
-21.41
-25.49
-26.86
-26.99
-27.19
-28.01
-29.13
-29.58
-28.24
-24.29
-17.63
-8.93
0.48
8.74
14.01
14.90
11.04
3.40
-5.76
-13.43
-16.96
-14.97
-8.01
1.50
10.25
15.18
14.56
8.35
-2.14
-14.89
-27.86
-39.11
-46.75
-48.89
-43.96
-31.52
-12.82
8.89
29.13
43.55
49.51
46.89
37.94
26.11
14.61
5.36
-1.21
-5.59
-8.47
-10.22
-10.85
-10.39
-9.28
-8.51
-9.36
-12.93
-19.65
-29.07
-39.81
-49.86
-56.97
-59.30
-55.94
-47.45
-35.80
-23.80
-14.14
-8.42
-6.62
-7.27
-8.21
-7.36
-3.38
4.21
15.15
28.52
42.86
56.10
65.97
70.55
69.06
62.34
52.70
43.18
36.38
33.60
34.48
37.49
40.70
42.56
42.34
40.02
35.97
30.50
23.67
15.48
6.03
-4.19
-14.29
-23.28
-30.42
-35.57
-39.25
-42.29
-45.51
-49.21
-53.21
-57.01
-60.29
-63.17
-66.29
-70.47
-76.29
-83.73
-91.99
-99.47
-103.84
-102.30
-92.17
-71.65
-40.78
-2.03
39.77
78.35
107.63
123.27
123.82
110.91
88.62
62.42
37.94
19.98
11.74
14.18
26.04
44.17
64.40
82.71
95.99
102.58
102.09
95.05
82.52
65.89
46.84
27.26
8.99
-6.63
-19.16
-29.13
-37.81
-46.55
-56.17
-66.65
-77.21
-86.71
-94.11
-98.64
-99.89
-97.61
-91.72
-82.54
-70.90
-58.23
-46.16
-36.03
-28.33
-22.56
-17.47
-11.68
-4.25
4.97
15.31
25.53
34.12
39.68
41.33
38.94
33.28
25.93
18.73
13.38
10.95
11.66
14.95
19.63
24.19
27.16
27.34
24.21
17.94
9.42
0.04
-8.77
-15.80
-20.41
-22.49
-22.33
-20.43
-17.24
-13.07
-8.13
-2.61
3.26
9.19
14.83
19.80
23.68
26.03
26.32
24.06
18.98
11.32
1.94
-7.77
-16.15
-21.60
-22.87
-19.24
-10.68
1.95
16.85
31.40
42.63
48.11
46.76
39.34
28.30
16.91
8.15
3.90
4.64
9.82
18.41
29.37
41.64
54.02
64.98
72.83
76.18
74.50
68.41
59.54
49.87
41.07
33.88
28.04
22.58
16.35
8.56
-1.03
-12.08
-23.92
-35.86
-47.29
-57.77
-67.00
-74.77
-80.82
-84.73
-85.99
-84.04
-78.53
-69.54
-57.73
-44.33
-30.86
-18.86
-9.67
-4.21
-2.84
-5.20
-9.98
-14.90
-17.10
-14.06
-4.63
10.30
27.94
44.61
57.19
64.13
65.74
63.54
59.28
54.13
48.57
42.79
37.23
32.57
29.48
28.07
27.54
26.50
23.58
18.14
10.51
1.81
-6.62
-13.66
-18.77
-21.93
-23.48
-23.85
-23.53
-22.92
-22.25
-21.48
-20.26
-18.09
-14.57
-9.67
-3.94
1.68
6.04
8.15
7.41
3.75
-2.31
-9.75
-17.14
-22.91
-25.71
-24.83
-20.48
-13.79
-6.46
-0.26
3.58
4.56
2.92
-0.84
-6.13
-12.50
-19.44
-26.18
-31.75
-35.13
-35.61
-32.95
-27.39
-19.39
-9.32
2.63
16.32
31.42
47.15
62.22
74.99
83.79
87.30
84.77
76.25
62.61
45.31
26.18
6.93
-11.24
-27.85
-43.11
-57.65
-72.11
-86.66
-100.87
-113.67
-123.71
-129.79
-131.19
-127.86
-120.27
-109.23
-95.58
-80.14
-63.52
-46.25
-28.80
-11.69
4.35
18.26
28.87
35.28
37.41
36.43
34.59
34.54
38.16
45.60
55.04
63.28
66.98
64.02
54.21
39.33
22.29
6.20
-6.47
-14.36
-17.22
-15.78
-11.41
-5.75
-0.41
3.37
4.93
4.25
1.80
-1.57
-4.98
-7.61
-9.01
-9.08
-8.08
-6.40
-4.30
-1.64
2.10
7.56
15.11
24.45
34.57
44.01
51.31
55.52
56.44
54.60
51.00
46.78
42.81
39.44
36.40
32.93
28.18
21.72
13.92
5.94
-0.63
-4.48
-5.06
-2.85
0.99
5.07
8.25
9.85
9.63
7.63
4.07
-0.77
-6.51
-12.70
-18.87
-24.60
-29.45
-33.08
-35.19
-35.67
-34.64
-32.41
-29.45
-26.20
-22.96
-19.96
-17.40
-15.57
-14.80
-15.26
-16.81
-18.95
-20.94
-22.12
-22.16
-21.28
-20.04
-19.10
-18.85
-19.19
-19.58
-19.33
-17.92
-15.38
-12.19
-9.12
-6.86
-5.69
-5.39
-5.48
-5.48
-5.33
-5.43
-6.46
-8.99
-13.12
-18.36
-23.79
-28.47
-31.72
-33.33
-33.43
-32.28
-30.14
-27.13
-23.27
-18.50
-12.66
-5.46
3.43
14.11
26.23
38.81
50.44
59.72
65.75
68.45
68.47
66.80
64.32
61.52
58.48
55.08
51.18
46.66
41.42
35.32
28.23
20.20
11.54
2.90
-4.96
-11.40
-16.00
-18.61
-19.15
-17.53
-13.65
-7.44
1.04
11.65
24.36
39.25
56.32
75.22
95.01
114.17
131.10
144.65
154.51
161.09
165.10
167.01
166.71
163.62
157.12
146.91
133.19
116.57
97.71
77.10
55.14
32.41
10.09
-10.00
-25.79
-35.97
-40.80
-42.34
-43.84
-48.36
-57.61
-71.52
-88.90
-108.45
-129.25
-150.44
-170.06
-184.40
-188.71
-179.25
-155.78
-122.86
-88.70
-62.00
-48.13
-47.01
-53.39
-59.43
-57.92
-44.47
-18.07
19.84
66.45
118.13
170.35
217.48
253.40
272.77
272.65
253.53
219.09
174.96
127.14
80.56
38.46
2.34
-27.67
-52.35
-72.95
-90.88
-107.38
-123.25
-138.73
-153.70
-168.15
-182.46
-197.60
-214.51
-233.22
-252.03
-267.37
-274.76
-270.42
-252.88
-223.54
-186.04
-144.52
-102.24
-60.96
-21.40
15.69
48.82
75.86
94.66
103.87
103.36
94.26
78.74
59.92
41.67
28.23
23.30
28.67
43.41
63.91
85.19
102.98
115.41
123.48
129.94
137.34
146.45
155.78
162.20
162.37
153.96
136.26
110.24
78.20
43.15
8.06
-25.01
-55.45
-84.08
-112.40
-141.48
-171.05
-199.39
-223.92
-242.11
-252.08
-252.51
-242.42
-221.14
-189.04
-148.44
-103.92
-61.52
-26.79
-2.88
10.79
18.04
24.27
34.11
49.82
70.79
94.39
117.70
138.98
158.54
178.37
200.89
227.30
256.22
283.48
303.16
309.68
299.97
274.74
238.01
195.48
152.22
110.88
71.54
32.36
-9.02
-54.59
-105.54
-161.85
-221.75
-281.25
-334.17
-373.54
-393.99
-393.78
-375.50
-344.75
-307.36
-266.70
-222.80
-173.63
-117.71
-56.55
4.87
59.64
101.58
127.51
137.95
136.22
126.69
113.44
99.43
86.81
77.25
71.80
70.51
71.78
72.46
69.03
59.32
43.94
26.53
12.63
7.72
15.44
36.31
67.67
104.57
141.02
171.36
191.19
197.66
189.47
166.87
132.03
89.32
45.28
7.43
-17.57
-26.15
-19.02
-0.99
20.81
39.27
49.38
49.18
39.74
24.48
8.40
-3.05
-5.24
4.21
24.40
51.09
77.90
98.24
107.31
103.04
86.01
58.51
23.48
-16.27
-58.40
-100.92
-142.08
-180.25
-213.90
-241.82
-263.22
-277.89
-286.12
-288.41
-285.19
-276.77
-263.63
-247.04
-229.62
-215.27
-208.28
-211.76
-225.90
-247.33
-269.69
-285.58
-288.93
-277.15
-252.06
-219.68
-188.50
-166.85
-159.96
-167.74
-184.37
-200.20
-205.23
-192.88
-162.00
-116.60
-63.13
-7.18
48.67
105.07
164.53
229.35
300.13
374.96
449.28
516.41
568.68
599.28
604.24
583.96
543.03
488.57
427.59
364.79
301.61
236.98
169.09
97.53
24.65
-44.30
-102.22
-142.14
-159.36
-152.93
-125.98
-84.84
-37.07
10.07
50.63
80.25
96.17
97.43
85.32
63.56
37.64
13.33
-5.27
-16.88
-22.97
-26.56
-30.65
-36.90
-45.48
-55.59
-66.34
-77.36
-88.98
-101.75
-116.01
-131.48
-147.29
-162.26
-175.24
-185.26
-191.60
-193.75
-191.60
-185.97
-178.83
-173.09
-171.55
-175.40
-182.99
-189.83
-189.90
-177.84
-150.97
-109.99
-58.19
0.07
60.78
120.70
177.18
227.64
269.71
301.70
323.41
336.25
342.52
344.23
342.10
335.25
321.81
299.98
269.17
230.79
188.16
145.87
108.44
78.89
57.71
42.75
30.21
16.31
-1.20
-22.38
-45.45
-68.07
-88.53
-106.37
-122.10
-136.28
-148.77
-158.51
-164.17
-164.89
-161.02
-154.13
-146.58
-140.57
-137.33
-136.84
-137.93
-138.87
-138.14
-134.90
-129.29
-122.12
-114.49
-107.27
-100.90
-95.45
-90.76
-86.69
-82.99
-79.24
-74.64
-68.05
-58.22
-44.33
-26.35
-5.32
16.75
37.25
53.61
64.07
68.44
68.26
66.17
64.73
64.83
64.76
60.51
47.15
20.69
-20.49
-74.92
-138.31
-204.51
-266.56
-317.75
-352.66
-368.29
-364.94
-346.29
-318.25
-286.84
-256.06
-226.76
-197.19
-164.84
-128.19
-87.67
-45.26
-3.11
37.66
77.34
117.24
158.95
203.51
250.83
299.36
345.98
386.09
414.32
425.65
416.98
387.90
340.46
278.24
205.24
125.38
42.85
-37.21
-108.70
-165.46
-203.19
-221.05
-222.17
-212.77
-200.03
-189.85
-185.37
-186.49
-190.94
-195.83
-198.93
-199.05
-195.42
-186.85
-171.07
-145.16
-106.75
-55.40
6.64
74.99
144.49
210.78
271.39
325.91
375.35
421.20
464.60
505.84
544.08
577.26
602.33
615.90
615.15
598.67
567.08
522.82
469.54
411.07
350.56
290.03
230.39
171.88
114.59
58.89
5.63
-44.10
-89.12
-128.47
-161.56
-188.15
-208.40
-222.74
-231.74
-236.18
-236.99
-235.33
-232.44
-229.53
-227.37
-226.19
-225.57
-224.70
-222.79
-219.37
-214.50
-208.57
-201.96
-194.82
-186.85
-177.64
-166.91
-154.83
-141.98
-129.12
-116.89
-105.57
-95.06
-85.14
-75.66
-66.69
-58.55
-51.57
-45.89
-41.41
-37.79
-34.62
-31.62
-28.67
-25.79
-23.03
-20.43
-18.01
-15.85
-14.11
-12.95
-12.49
-12.67
-13.25
-13.88
-14.33
-14.57
-14.81
-15.44
-16.70
-18.57
-20.70
-22.44
-23.12
-22.26
-19.73
-15.78
-10.91
-5.72
-0.75
3.61
7.10
9.56
11.01
11.59
11.58
11.30
11.02
10.88
10.89
11.02
11.26
11.70
12.43
13.48
14.75
15.99
16.93
17.29
16.92
15.80
14.02
11.82
9.48
7.27
5.30
3.56
1.90
0.12
-1.85
-3.97
-5.99
-7.54
-8.22
-7.68
-5.71
-2.30
2.28
7.60
13.09
18.15
22.36
25.46
27.41
28.36
28.53
28.15
27.40
26.39
25.13
23.62
21.85
19.96
18.05
16.33
14.89
13.77
12.90
12.14
11.31
10.18
8.51
6.14
3.09
-0.34
-3.65
-6.30
-7.89
-8.42
-8.27
-8.05
-8.40
-9.73
-12.08
-15.09
-18.13
-20.46
-21.40
-20.51
-17.67
-13.10
-7.32
-1.10
4.79
9.65
13.02
14.76
14.99
14.05
12.44
10.72
9.43
9.01
9.64
11.14
13.04
14.64
15.27
14.62
12.77
10.23
7.62
5.43
3.79
2.54
1.36
0.03
-1.46
-2.98
-4.31
-5.38
-6.18
-6.85
-7.45
-8.07
-8.73
-9.48
-10.35
-11.23
-11.85
-11.70
-10.31
-7.34
-2.89
2.50
8.06
13.00
16.84
19.47
21.02
21.70
21.65
20.92
19.58
17.80
15.88
14.14
12.87
12.27
12.46
13.52
15.35
17.72
20.21
22.27
23.46
23.56
22.63
20.86
18.50
15.65
12.37
8.78
5.08
1.57
-1.56
-4.31
-6.94
-9.73
-12.79
-15.91
-18.55
-20.03
-19.70
-17.22
-12.61
-6.35
0.80
7.88
14.02
18.65
21.53
22.83
22.89
22.09
20.72
18.98
17.03
15.10
13.41
12.19
11.53
11.41
11.69
12.22
12.83
13.37
13.69
13.64
13.05
11.78
9.81
7.20
4.16
0.99
-2.01
-4.62
-6.79
-8.64
-10.35
-12.09
-13.95
-15.83
-17.57
-18.96
-19.80
-19.89
-19.01
-16.97
-13.67
-9.21
-3.94
1.61
6.81
11.13
14.25
16.14
16.93
16.89
16.25
15.22
14.00
12.82
11.96
11.66
12.02
12.93
14.08
15.10
15.66
15.65
15.14
14.31
13.32
12.20
10.92
9.40
7.66
5.77
3.88
2.05
0.30
-1.48
-3.37
-5.43
-7.66
-9.95
-12.19
-14.18
-15.67
-16.40
-16.19
-14.95
-12.78
-9.86
-6.44
-2.74
1.07
4.78
8.15
10.90
12.81
13.84
14.10
13.85
13.40
12.93
12.49
12.00
11.34
10.49
9.51
8.59
7.94
7.65
7.59
7.36
6.53
4.79
2.17
-0.91
-3.83
-6.02
-7.22
-7.59
-7.59
-7.70
-8.24
-9.23
-10.49
-11.72
-12.63
-12.85
-12.03
-9.82
-6.14
-1.27
4.14
9.23
13.24
15.73
16.72
16.49
15.46
13.93
12.11
10.18
8.33
6.75
5.53
4.63
3.88
3.11
2.29
1.45
0.71
0.16
-0.11
-0.01
0.51
1.40
2.41
3.13
3.10
2.05
0.09
-2.36
-4.78
-6.80
-8.44
-9.99
-11.80
-13.96
-16.20
-17.96
-18.68
-18.03
-16.08
-13.18
-9.82
-6.42
-3.25
-0.40
2.11
4.27
6.06
7.39
8.19
8.34
7.76
6.42
4.42
2.00
-0.43
-2.38
-3.46
-3.40
-2.14
0.20
3.30
6.72
9.76
11.63
11.58
9.17
4.49
-1.82
-8.67
-14.93
-19.74
-22.65
-23.64
-22.86
-20.52
-16.82
-12.03
-6.58
-1.01
4.04
8.06
10.81
12.34
12.89
12.72
12.00
10.81
9.22
7.35
5.40
3.64
2.26
1.36
0.95
1.00
1.58
2.88
5.07
8.25
12.26
16.65
20.74
23.76
25.13
24.57
22.23
18.58
14.27
9.94
6.10
3.01
0.74
-0.82
-1.91
-2.83
-3.88
-5.21
-6.78
-8.26
-9.12
-8.83
-7.12
-4.10
-0.26
3.73
7.26
10.03
12.00
13.30
14.07
14.38
14.22
13.67
12.91
12.20
11.80
11.78
12.07
12.51
12.95
13.30
13.56
13.69
13.63
13.25
12.43
11.09
9.22
6.88
4.15
1.15
-1.96
-4.96
-7.63
-9.73
-11.13
-11.84
-11.96
-11.68
-11.20
-10.64
-10.03
-9.29
-8.30
-6.99
-5.38
-3.68
-2.12
-0.91
-0.11
0.36
0.69
1.02
1.38
1.70
1.85
1.72
1.28
0.53
-0.49
-1.73
-3.13
-4.54
-5.77
-6.61
-6.95
-6.82
-6.40
-5.90
-5.52
-5.32
-5.24
-5.19
-5.15
-5.19
-5.45
-6.14
-7.33
-8.98
-10.89
-12.77
-14.33
-15.31
-15.52
-14.84
-13.26
-10.81
-7.63
-3.96
-0.10
3.57
6.68
8.94
10.26
10.71
10.53
10.06
9.60
9.34
9.33
9.42
9.40
9.06
8.28
7.10
5.67
4.21
2.86
1.69
0.63
-0.42
-1.56
-2.81
-4.11
-5.34
-6.38
-7.21
-7.89
-8.54
-9.29
-10.19
-11.17
-12.14
-12.94
-13.50
-13.78
-13.74
-13.23
-11.99
-9.64
-5.89
-0.71
5.59
12.37
18.85
24.27
28.07
29.86
29.39
26.59
21.66
15.14
7.92
1.06
-4.55
-8.45
-10.72
-11.77
-12.07
-11.80
-10.88
-9.07
-6.23
-2.54
1.56
5.52
8.81
11.11
12.23
12.08
10.66
8.04
4.42
0.18
-4.19
-8.13
-11.20
-13.20
-14.11
-14.14
-13.51
-12.47
-11.19
-9.78
-8.34
-6.98
-5.79
-4.83
-4.11
-3.61
-3.27
-3.08
-3.04
-3.14
-3.35
-3.59
-3.72
-3.58
-3.03
-2.03
-0.68
0.78
2.03
2.78
2.86
2.27
1.16
-0.24
-1.74
-3.20
-4.53
-5.65
-6.48
-6.95
-7.05
-6.82
-6.29
-5.44
-4.19
-2.44
-0.14
2.60
5.59
8.55
11.22
13.36
14.77
15.30
14.88
13.56
11.62
9.42
7.38
5.81
4.80
4.26
3.98
3.79
3.58
3.33
3.08
2.87
2.67
2.45
2.14
1.68
1.02
0.14
-1.02
-2.47
-4.24
-6.29
-8.47
-10.57
-12.33
-13.52
-13.96
-13.56
-12.28
-10.13
-7.21
-3.74
-0.07
3.43
6.42
8.71
10.24
11.01
11.07
10.45
9.30
7.90
6.65
5.96
6.04
6.79
7.78
8.51
8.60
8.04
7.17
6.49
6.48
7.35
9.00
11.08
13.05
14.29
14.28
12.70
9.50
4.93
-0.54
-6.35
-12.08
-17.41
-22.19
-26.27
-29.39
-31.25
-31.49
-29.99
-26.85
-22.45
-17.30
-11.98
-6.93
-2.49
1.16
3.96
5.90
7.00
7.30
6.89
5.90
4.56
3.19
2.15
1.67
1.86
2.59
3.58
4.55
5.29
5.73
5.93
5.97
5.95
5.91
5.86
5.79
5.63
5.37
4.90
4.18
3.17
1.91
0.49
-0.95
-2.25
-3.28
-3.95
-4.14
-3.80
-2.91
-1.52
0.26
2.19
4.02
5.55
6.69
7.49
8.11
8.67
9.18
9.50
9.40
8.66
7.23
5.26
3.07
1.10
-0.23
-0.62
0.10
1.83
4.15
6.34
7.50
6.77
3.71
-1.50
-7.96
-14.32
-19.16
-21.58
-21.43
-19.42
-16.83
-15.03
-15.01
-17.09
-20.89
-25.47
-29.67
-32.35
-32.62
-29.98
-24.40
-16.37
-6.77
3.28
12.65
20.41
26.04
29.40
30.70
30.40
29.04
27.17
25.20
23.42
21.88
20.47
19.09
17.63
16.14
14.72
13.43
12.30
11.19
9.97
8.49
6.72
4.77
2.82
1.14
-0.01
-0.41
0.05
1.37
3.36
5.70
7.93
9.69
10.78
11.28
11.49
11.84
12.61
13.87
15.46
17.11
18.61
19.84
20.79
21.43
21.69
21.42
20.52
19.02
17.10
15.10
13.36
12.13
11.44
11.19
11.15
11.09
10.81
10.13
8.90
6.96
4.19
0.65
-3.35
-7.23
-10.32
-12.15
-12.70
-12.51
-12.53
-13.78
-16.97
-22.24
-29.27
-37.43
-46.22
-55.46
-65.34
-76.23
-88.39
-101.64
-115.17
-127.71
-137.79
-144.43
-147.51
-148.02
-147.70
-148.41
-151.48
-157.28
-165.41
-175.03
-185.27
-195.30
-204.01
-209.77
-210.75
-205.63
-194.43
-178.83
-161.64
-145.63
-132.59
-123.06
-116.91
-114.10
-114.76
-118.56
-123.54
-125.73
-119.92
-101.70
-69.46
-25.16
26.39
79.81
131.34
179.92
226.96
275.12
326.86
383.36
443.77
504.96
561.72
607.52
635.99
642.80
627.02
591.36
541.05
481.96
418.83
354.70
291.41
230.74
175.14
127.38
89.27
60.39
37.77
16.78
-6.95
-35.70
-68.85
-103.33
-135.17
-161.06
-179.20
-189.22
-191.52
-186.70
-175.28
-157.90
-135.36
-108.49
-77.73
-43.03
-4.18
38.57
83.86
129.33
172.32
210.76
243.75
271.28
293.51
309.96
319.25
319.56
309.38
288.36
257.69
219.81
177.69
133.89
89.87
45.89
1.46
-43.77
-89.21
-133.00
-172.44
-205.00
-229.31
-245.63
-255.62
-261.51
-265.17
-267.67
-269.33
-270.19
-270.32
-269.97
-269.41
-268.66
-267.41
-265.09
-261.29
-256.01
-249.70
-242.96
-236.02
-228.29
-218.24
-203.92
-183.73
-157.35
-126.10
-92.78
-60.95
-33.83
-13.48
-0.31
6.98
10.91
14.60
20.81
31.09
45.16
60.91
75.00
83.95
85.31
78.42
64.44
45.81
25.33
5.40
-12.37
-27.25
-39.08
-48.15
-54.89
-59.78
-63.27
-65.68
-67.16
-67.66
-67.01
-64.99
-61.44
-56.40
-50.11
-43.02
-35.64
-28.39
-21.49
-14.88
-8.29
-1.33
6.22
14.36
22.77
30.97
38.34
44.38
48.77
51.43
52.48
52.22
50.97
49.06
46.66
43.82
40.42
36.26
31.13
24.93
17.82
10.18
2.59
-4.32
-10.05
-14.41
-17.52
-19.76
-21.58
-23.32
-25.13
-26.92
-28.49
-29.60
-30.05
-29.75
-28.66
-26.83
-24.38
-21.47
-18.35
-15.28
-12.55
-10.34
-8.76
-7.82
-7.39
-7.23
-7.12
-6.91
-6.56
-6.17
-5.88
-5.83
-6.04
-6.47
-7.00
-7.48
-7.80
-7.95
-7.98
-8.04
-8.31
-8.91
-9.88
-11.07
-12.24
-13.08
-13.41
-13.18
-12.53
-11.68
-10.83
-9.99
-9.08
-7.89
-6.26
-4.17
-1.74
0.78
3.11
5.07
6.63
7.82
8.71
9.31
9.58
9.46
8.97
8.23
7.48
7.00
7.02
7.64
8.89
10.75
13.16
16.09
19.34
22.61
25.38
27.10
27.35
26.03
23.38
19.85
15.94
11.97
8.07
4.21
0.41
-3.25
-6.59
-9.41
-11.61
-13.19
-14.25
-14.84
-14.92
-14.39
-13.14
-11.24
-8.93
-6.64
-4.81
-3.73
-3.42
-3.62
-3.94
-3.94
-3.39
-2.16
-0.32
2.03
4.70
7.40
9.75
11.30
11.63
10.54
8.16
4.95
1.56
-1.39
-3.53
-4.76
-5.28
-5.36
-5.27
-5.10
-4.85
-4.47
-3.92
-3.25
-2.54
-1.84
-1.04
0.12
1.99
4.77
8.41
12.51
16.45
19.61
21.59
22.37
22.28
21.79
21.39
21.36
21.79
22.57
23.52
24.42
25.07
25.26
24.83
23.61
21.53
18.65
15.21
11.59
8.20
5.35
3.13
1.46
0.15
-0.93
-1.82
-2.43
-2.74
-2.88
-3.22
-4.23
-6.32
-9.61
-13.91
-18.67
-23.21
-26.91
-29.29
-30.20
-29.69
-27.95
-25.21
-21.65
-17.39
-12.60
-7.52
-2.49
2.10
5.94
8.88
10.99
12.46
13.47
14.06
14.20
13.84
13.09
12.19
11.47
11.14
11.21
11.42
11.43
10.92
9.81
8.24
6.58
5.20
4.36
4.14
4.38
4.81
5.07
4.88
4.07
2.67
0.88
-0.97
-2.54
-3.59
-4.04
-4.02
-3.81
-3.77
-4.21
-5.34
-7.16
-9.42
-11.72
-13.54
-14.51
-14.47
-13.52
-11.94
-9.99
-7.78
-5.20
-2.00
2.08
7.07
12.72
18.48
23.66
27.56
29.64
29.62
27.58
23.97
19.56
15.35
12.26
10.96
11.67
14.07
17.44
20.94
23.75
25.24
25.06
23.00
19.07
13.51
6.78
-0.41
-7.23
-12.99
-17.27
-20.03
-21.49
-21.94
-21.58
-20.41
-18.32
-15.23
-11.25
-6.75
-2.32
1.34
3.63
4.24
3.22
0.99
-1.80
-4.40
-6.21
-6.88
-6.35
-4.84
-2.77
-0.64
1.04
1.88
1.66
0.40
-1.62
-3.95
-6.10
-7.68
-8.51
-8.62
-8.21
-7.49
-6.65
-5.75
-4.77
-3.73
-2.69
-1.82
-1.27
-1.09
-1.17
-1.23
-0.96
-0.18
1.03
2.41
3.69
4.72
5.56
6.40
7.40
8.55
9.78
10.97
12.14
13.41
14.86
16.44
17.89
18.82
18.90
17.97
16.12
13.59
10.63
7.38
3.92
0.26
-3.54
-7.32
-10.90
-14.11
-16.89
-19.25
-21.17
-22.56
-23.25
-22.96
-21.55
-19.05
-15.73
-12.00
-8.24
-4.72
-1.53
1.39
4.12
6.74
9.23
11.57
13.73
15.66
17.24
18.38
18.97
18.95
18.33
17.23
15.81
14.23
12.65
11.13
9.69
8.29
6.85
5.31
3.61
1.80
-0.07
-1.85
-3.42
-4.68
-5.61
-6.29
-6.83
-7.38
-8.04
-8.88
-9.86
-10.88
-11.76
-12.26
-12.18
-11.33
-9.66
-7.30
-4.54
-1.74
0.75
2.73
4.18
5.21
5.98
6.56
6.98
7.16
7.14
7.01
6.92
7.01
7.32
7.76
8.14
8.30
8.10
7.52
6.61
5.47
4.23
2.96
1.76
0.60
-0.59
-1.97
-3.62
-5.54
-7.62
-9.69
-11.63
-13.38
-14.99
-16.61
-18.36
-20.33
-22.46
-24.61
-26.54
-28.07
-29.13
-29.75
-30.04
-30.04
-29.64
-28.56
-26.53
-23.34
-18.95
-13.46
-6.99
0.39
8.62
17.58
26.93
36.12
44.55
51.78
57.65
62.25
65.84
68.61
70.62
71.75
71.88
70.85
68.53
64.79
59.47
52.50
43.97
34.26
24.02
13.97
4.73
-3.37
-10.30
-16.15
-21.07
-25.14
-28.42
-31.00
-33.05
-34.80
-36.36
-37.75
-38.82
-39.43
-39.43
-38.75
-37.33
-35.17
-32.32
-28.90
-25.09
-21.02
-16.71
-12.05
-6.84
-1.02
5.25
11.57
17.45
22.47
26.49
29.62
32.11
34.23
36.08
37.65
38.82
39.52
39.70
39.37
38.51
37.00
34.65
31.22
26.59
20.81
14.19
7.26
0.68
-5.00
-9.45
-12.62
-14.73
-16.13
-17.17
-18.06
-18.92
-19.73
-20.45
-20.99
-21.27
-21.28
-21.06
-20.69
-20.23
-19.72
-19.07
-18.20
-17.08
-15.82
-14.62
-13.68
-13.06
-12.66
-12.24
-11.63
-10.81
-10.01
-9.53
-9.62
-10.29
-11.26
-12.14
-12.55
-12.33
-11.59
-10.64
-9.85
-9.40
-9.30
-9.33
-9.21
-8.68
-7.70
-6.36
-4.80
-3.13
-1.30
0.77
3.14
5.70
8.18
10.28
11.76
12.58
12.86
12.83
12.67
12.51
12.40
12.34
12.34
12.38
12.47
12.54
12.56
12.53
12.49
12.44
12.34
12.08
11.51
10.53
9.15
7.53
5.87
4.31
2.89
1.54
0.17
-1.21
-2.50
-3.50
-4.05
-4.09
-3.63
-2.75
-1.49
0.08
1.85
3.55
4.88
5.62
5.77
5.62
5.54
5.89
6.71
7.77
8.70
9.17
9.01
8.28
7.15
5.83
4.48
3.13
1.78
0.35
-1.25
-3.06
-5.06
-7.15
-9.17
-10.97
-12.49
-13.75
-14.83
-15.87
-16.99
-18.27
-19.67
-21.01
-22.00
-22.28
-21.55
-19.69
-16.85
-13.39
-9.77
-6.43
-3.63
-1.47
0.05
1.03
1.56
1.77
1.78
1.75
1.79
1.96
2.32
2.85
3.56
4.43
5.40
6.41
7.30
7.92
8.14
7.96
7.43
6.68
5.85
4.97
4.03
2.93
1.57
-0.10
-1.99
-3.90
-5.54
-6.63
-6.96
-6.54
-5.48
-4.02
-2.36
-0.67
0.94
2.39
3.57
4.33
4.58
4.35
3.75
3.02
2.38
1.97
1.80
1.84
1.99
2.23
2.52
2.79
2.93
2.82
2.38
1.65
0.79
-0.01
-0.56
-0.81
-0.83
-0.78
-0.88
-1.24
-1.92
-2.84
-3.85
-4.77
-5.46
-5.80
-5.73
-5.26
-4.39
-3.15
-1.61
0.10
1.83
3.37
4.57
5.32
5.59
5.38
4.72
3.69
2.40
1.03
-0.22
-1.13
-1.55
-1.45
-0.85
0.08
1.12
1.99
2.46
2.43
1.92
1.09
0.15
-0.72
-1.41
-1.91
-2.31
-2.74
-3.36
-4.28
-5.52
-6.99
-8.47
-9.61
-10.08
-9.67
-8.36
-6.34
-3.95
-1.51
0.74
2.74
4.52
6.17
7.67
8.90
9.70
9.94
9.62
8.92
8.07
7.29
6.67
6.19
5.77
5.39
5.09
4.93
4.90
4.87
4.64
4.03
3.02
1.74
0.40
-0.80
-1.77
-2.56
-3.28
-4.06
-4.91
-5.78
-6.59
-7.22
-7.58
-7.58
-7.22
-6.50
-5.52
-4.42
-3.37
-2.52
-1.90
-1.42
-0.89
-0.11
1.02
2.42
3.83
4.94
5.60
5.80
5.69
5.44
5.07
4.40
3.18
1.17
-1.59
-4.87
-8.24
-11.36
-14.03
-16.29
-18.35
-20.47
-22.92
-25.85
-29.29
-32.98
-36.40
-38.70
-38.93
-36.37
-30.81
-22.66
-12.87
-2.54
7.38
16.27
23.86
30.03
34.75
38.09
40.22
41.52
42.45
43.37
44.43
45.52
46.33
46.61
46.27
45.37
44.07
42.54
40.86
38.99
36.80
34.10
30.74
26.63
21.83
16.54
11.02
5.63
0.64
-3.74
-7.49
-10.70
-13.56
-16.25
-18.86
-21.37
-23.63
-25.42
-26.51
-26.77
-26.21
-24.97
-23.31
-21.54
-19.90
-18.57
-17.58
-16.81
-16.11
-15.34
-14.41
-13.35
-12.18
-10.95
-9.69
-8.45
-7.29
-6.31
-5.62
-5.33
-5.46
-5.99
-6.75
-7.55
-8.17
-8.48
-8.44
-8.15
-7.78
-7.44
-7.20
-7.06
-6.99
-6.97
-6.98
-7.00
-6.94
-6.71
-6.25
-5.58
-4.73
-3.77
-2.67
-1.36
0.22
2.01
3.84
5.43
6.55
7.08
7.07
6.69
6.14
5.57
5.05
4.62
4.28
4.05
3.96
4.02
4.21
4.44
4.61
4.63
4.46
4.15
3.81
3.51
3.29
3.07
2.76
2.28
1.65
0.97
0.42
0.13
0.12
0.28
0.42
0.39
0.15
-0.18
-0.44
-0.48
-0.25
0.22
0.89
1.71
2.65
3.70
4.71
5.55
6.03
6.05
5.63
4.86
3.88
2.85
1.91
1.21
0.86
0.94
1.35
1.91
2.34
2.42
2.02
1.17
-0.01
-1.35
-2.68
-3.83
-4.69
-5.18
-5.29
-5.08
-4.69
-4.31
-4.14
-4.30
-4.83
-5.61
-6.44
-7.06
-7.27
-6.96
-6.14
-4.94
-3.57
-2.24
-1.11
-0.29
0.21
0.45
0.53
0.60
0.82
1.26
1.93
2.70
3.39
3.87
4.09
4.15
4.19
4.34
4.61
4.91
5.10
5.08
4.86
4.53
4.21
3.94
3.68
3.28
2.62
1.67
0.51
-0.71
-1.85
-2.85
-3.72
-4.52
-5.28
-5.91
-6.27
-6.25
-5.84
-5.09
-4.14
-3.10
-2.03
-0.95
0.11
1.07
1.82
2.32
2.59
2.76
2.95
3.17
3.34
3.31
3.04
2.52
1.90
1.36
1.03
0.96
1.08
1.28
1.47
1.60
1.66
1.64
1.51
1.22
0.72
0.02
-0.84
-1.74
-2.58
-3.25
-3.77
-4.25
-4.82
-5.58
-6.55
-7.63
-8.66
-9.45
-9.83
-9.74
-9.18
-8.21
-6.92
-5.39
-3.74
-2.08
-0.58
0.64
1.47
1.87
1.92
1.77
1.65
1.78
2.28
3.15
4.26
5.44
6.51
7.38
8.07
8.64
9.10
9.38
9.32
8.74
7.61
6.05
4.33
2.78
1.61
0.85
0.35
-0.05
-0.48
-0.98
-1.49
-1.98
-2.49
-3.10
-3.85
-4.69
-5.45
-5.96
-6.07
-5.77
-5.14
-4.32
-3.45
-2.63
-1.94
-1.43
-1.06
-0.81
-0.59
-0.36
-0.12
0.07
0.16
0.14
0.10
0.15
0.38
0.78
1.25
1.61
1.73
1.58
1.18
0.66
0.17
-0.19
-0.30
-0.13
0.30
0.91
1.50
1.86
1.81
1.28
0.31
-0.94
-2.29
-3.62
-4.82
-5.84
-6.59
-6.96
-6.86
-6.30
-5.37
-4.23
-3.00
-1.75
-0.44
1.01
2.64
4.40
6.13
7.71
9.00
9.96
10.61
10.97
11.06
10.86
10.40
9.68
8.79
7.77
6.72
5.77
5.12
4.97
5.48
6.61
8.12
9.51
10.25
9.96
8.53
6.16
3.21
0.11
-2.80
-5.17
-6.75
-7.28
-6.68
-5.14
-3.14
-1.39
-0.50
-0.77
-2.06
-3.89
-5.65
-6.82
-7.15
-6.64
-5.47
-3.90
-2.22
-0.70
0.47
1.21
1.58
1.76
1.92
2.19
2.55
2.91
3.14
3.19
3.08
2.91
2.79
2.73
2.65
2.39
1.81
0.83
-0.48
-1.96
-3.43
-4.74
-5.84
-6.76
-7.53
-8.08
-8.32
-8.10
-7.36
-6.19
-4.82
-3.57
-2.69
-2.29
-2.32
-2.67
-3.18
-3.76
-4.33
-4.81
-5.08
-4.98
-4.39
-3.32
-1.89
-0.34
1.08
2.18
2.85
3.10
2.94
2.42
1.59
0.54
-0.61
-1.71
-2.65
-3.41
-4.05
-4.66
-5.30
-6.01
-6.73
-7.41
-8.05
-8.67
-9.32
-9.99
-10.63
-11.11
-11.32
-11.22
-10.85
-10.30
-9.68
-9.04
-8.34
-7.53
-6.59
-5.54
-4.45
-3.44
-2.57
-1.84
-1.22
-0.66
-0.09
0.52
1.21
2.01
2.90
3.85
4.78
5.56
6.15
6.53
6.73
6.87
7.01
7.18
7.39
7.63
7.89
8.18
8.45
8.55
8.32
7.58
6.33
4.73
3.11
1.79
0.92
0.40
0.01
-0.43
-0.93
-1.32
-1.44
-1.25
-0.97
-0.95
-1.50
-2.70
-4.37
-6.15
-7.67
-8.67
-9.05
-8.85
-8.18
-7.19
-6.00
-4.74
-3.47
-2.24
-1.10
-0.13
0.57
0.92
0.96
0.78
0.57
0.48
0.56
0.78
1.06
1.37
1.66
1.96
2.19
2.25
2.09
1.68
1.08
0.37
-0.39
-1.16
-1.93
-2.67
-3.29
-3.71
-3.91
-3.91
-3.83
-3.76
-3.76
-3.77
-3.72
-3.49
-3.00
-2.23
-1.23
-0.06
1.10
2.07
2.72
2.98
2.89
2.61
2.28
2.01
1.86
1.81
1.84
1.95
2.11
2.35
2.64
2.98
3.34
3.72
4.13
4.61
5.14
5.68
6.15
6.42
6.42
6.13
5.55
4.76
3.80
2.75
1.66
0.60
-0.37
-1.21
-1.89
-2.41
-2.81
-3.14
-3.40
-3.59
-3.71
-3.72
-3.61
-3.30
-2.74
-1.87
-0.74
0.54
1.77
2.73
3.29
3.42
3.19
2.74
2.23
1.80
1.61
1.81
2.52
3.77
5.45
7.31
9.01
10.19
10.60
10.17
9.00
7.33
5.44
3.58
1.86
0.35
-0.95
-2.00
-2.75
-3.17
-3.34
-3.41
-3.56
-3.96
-4.62
-5.46
-6.32
-7.05
-7.52
-7.62
-7.24
-6.28
-4.76
-2.82
-0.78
1.01
2.31
3.07
3.48
3.82
4.32
5.00
5.76
6.41
6.82
6.95
6.85
6.56
6.06
5.29
4.27
3.08
1.92
1.04
0.58
0.58
0.89
1.28
1.54
1.55
1.27
0.71
-0.07
-1.06
-2.17
-3.35
-4.46
-5.37
-5.96
-6.19
-6.04
-5.55
-4.76
-3.74
-2.56
-1.32
-0.16
0.75
1.31
1.48
1.29
0.86
0.35
-0.11
-0.40
-0.49
-0.43
-0.34
-0.35
-0.53
-0.88
-1.35
-1.86
-2.37
-2.85
-3.30
-3.66
-3.92
-4.07
-4.15
-4.26
-4.48
-4.85
-5.35
-5.88
-6.37
-6.80
-7.17
-7.53
-7.90
-8.21
-8.29
-7.93
-6.94
-5.27
-3.05
-0.52
2.00
4.22
5.96
7.13
7.68
7.65
7.06
6.03
4.78
3.56
2.65
2.21
2.27
2.65
3.06
3.19
2.84
2.03
1.00
0.08
-0.45
-0.50
-0.22
0.15
0.41
0.45
0.31
0.08
-0.24
-0.62
-1.11
-1.71
-2.34
-2.96
-3.50
-3.97
-4.40
-4.77
-5.08
-5.25
-5.17
-4.77
-3.98
-2.81
-1.33
0.26
1.75
2.93
3.67
4.03
4.16
4.30
4.63
5.23
6.02
6.83
7.48
7.85
7.90
7.66
7.22
6.64
5.97
5.25
4.57
4.00
3.61
3.39
3.25
3.09
2.78
2.32
1.78
1.25
0.77
0.31
-0.23
-0.94
-1.81
-2.70
-3.44
-3.83
-3.81
-3.37
-2.59
-1.54
-0.32
0.96
2.12
2.99
3.43
3.44
3.14
2.77
2.51
2.46
2.61
2.86
3.10
3.24
3.27
3.15
2.86
2.36
1.58
0.46
-1.02
-2.76
-4.57
-6.20
-7.35
-7.83
-7.61
-6.76
-5.50
-4.06
-2.63
-1.33
-0.29
0.39
0.57
0.12
-0.98
-2.70
-4.88
-7.28
-9.60
-11.52
-12.74
-12.95
-11.98
-9.81
-6.63
-2.84
0.98
4.29
6.64
7.83
7.91
7.14
5.91
4.62
3.67
3.31
3.70
4.77
6.36
8.19
9.91
11.21
11.83
11.62
10.55
8.75
6.45
3.95
1.50
-0.75
-2.79
-4.70
-6.50
-8.13
-9.45
-10.29
-10.61
-10.52
-10.28
-10.14
-10.26
-10.70
-11.38
-12.18
-12.94
-13.49
-13.61
-13.07
-11.69
-9.46
-6.58
-3.45
-0.48
1.97
3.81
5.12
6.11
7.00
7.95
9.06
10.36
11.80
13.22
14.42
15.14
15.22
14.56
13.23
11.40
9.28
7.11
5.09
3.49
2.53
2.32
2.79
3.66
4.57
5.21
5.41
5.18
4.60
3.70
2.46
0.85
-1.03
-2.93
-4.47
-5.33
-5.36
-4.66
-3.48
-2.13
-0.83
0.34
1.37
2.28
3.03
3.56
3.82
3.79
3.56
3.26
3.00
2.90
3.00
3.28
3.68
4.16
4.69
5.24
5.74
6.04
5.97
5.42
4.45
3.22
1.99
0.93
0.08
-0.65
-1.38
-2.16
-2.87
-3.39
-3.60
-3.53
-3.36
-3.27
-3.39
-3.66
-3.89
-3.82
-3.26
-2.17
-0.63
1.19
3.09
4.91
6.57
8.01
9.20
10.14
10.80
11.20
11.32
11.17
10.74
10.04
9.13
8.08
7.00
5.96
4.95
3.89
2.67
1.26
-0.24
-1.63
-2.64
-3.10
-3.08
-2.83
-2.75
-3.18
-4.26
-5.83
-7.58
-9.11
-10.16
-10.68
-10.82
-10.84
-10.96
-11.26
-11.63
-11.86
-11.74
-11.21
-10.34
-9.29
-8.25
-7.27
-6.34
-5.38
-4.37
-3.41
-2.64
-2.20
-2.13
-2.36
-2.76
-3.24
-3.76
-4.35
-5.01
-5.69
-6.27
-6.59
-6.56
-6.18
-5.61
-5.07
-4.78
-4.88
-5.34
-5.98
-6.53
-6.71
-6.36
-5.51
-4.36
-3.23
-2.46
-2.29
-2.85
-4.13
-6.03
-8.40
-11.06
-13.74
-16.07
-17.64
-18.11
-17.26
-15.12
-11.92
-7.99
-3.68
0.74
5.02
8.95
12.29
14.77
16.20
16.52
15.88
14.55
12.89
11.22
9.73
8.46
7.36
6.37
5.45
4.62
3.98
3.56
3.32
3.13
2.82
2.26
1.45
0.51
-0.40
-1.14
-1.65
-2.00
-2.28
-2.56
-2.85
-3.09
-3.24
-3.31
-3.32
-3.34
-3.32
-3.20
-2.87
-2.29
-1.52
-0.68
0.10
0.71
1.13
1.44
1.74
2.18
2.85
3.78
4.94
6.22
7.49
8.57
9.36
9.80
9.89
9.64
9.06
8.18
7.09
5.89
4.76
3.84
3.17
2.69
2.25
1.63
0.63
-0.86
-2.87
-5.29
-7.96
-10.58
-12.88
-14.56
-15.39
-15.31
-14.33
-12.64
-10.47
-8.09
-5.78
-3.71
-2.00
-0.60
0.59
1.71
2.82
3.90
4.77
5.31
5.45
5.27
4.99
4.81
4.91
5.33
6.00
6.80
7.59
8.28
8.80
9.11
9.17
9.00
8.58
8.01
7.38
6.80
6.40
6.23
6.23
6.24
6.11
5.68
4.95
4.01
3.07
2.38
2.12
2.40
3.18
4.27
5.41
6.30
6.73
6.65
6.14
5.34
4.41
3.43
2.40
1.31
0.18
-0.92
-1.88
-2.60
-3.06
-3.31
-3.46
-3.61
-3.77
-3.86
-3.77
-3.42
-2.90
-2.45
-2.27
-2.54
-3.17
-3.99
-4.79
-5.47
-6.11
-6.88
-7.84
-8.93
-9.93
-10.55
-10.62
-10.08
-9.03
-7.65
-6.19
-4.82
-3.71
-2.95
-2.57
-2.46
-2.48
-2.44
-2.24
-1.91
-1.56
-1.42
-1.66
-2.33
-3.30
-4.35
-5.24
-5.80
-6.03
-6.00
-5.82
-5.58
-5.30
-5.04
-4.87
-4.85
-5.09
-5.57
-6.27
-7.12
-8.07
-9.14
-10.34
-11.65
-12.95
-14.08
-14.88
-15.30
-15.41
-15.42
-15.50
-15.73
-15.97
-15.98
-15.46
-14.16
-12.04
-9.21
-5.96
-2.60
0.60
3.45
5.88
7.86
9.39
10.51
11.31
11.88
12.34
12.82
13.35
13.93
14.46
14.90
15.22
15.43
15.58
15.70
15.73
15.59
15.14
14.31
13.13
11.67
10.05
8.37
6.65
4.90
3.13
1.41
-0.12
-1.29
-2.04
-2.38
-2.44
-2.34
-2.15
-1.87
-1.48
-1.00
-0.54
-0.29
-0.40
-0.93
-1.83
-2.92
-4.01
-4.98
-5.78
-6.42
-6.87
-7.07
-6.94
-6.43
-5.58
-4.51
-3.33
-2.13
-0.98
0.16
1.24
2.20
2.92
3.27
3.15
2.59
1.72
0.68
-0.40
-1.49
-2.61
-3.78
-4.94
-6.03
-6.92
-7.54
-7.89
-7.98
-7.84
-7.48
-6.83
-5.87
-4.61
-3.09
-1.39
0.40
2.22
3.93
5.36
6.29
6.63
6.42
5.92
5.49
5.45
6.00
7.15
8.73
10.47
12.05
13.26
13.97
14.17
13.96
13.50
12.97
12.45
11.94
11.37
10.65
9.76
8.74
7.70
6.74
5.92
5.23
4.62
4.04
3.52
3.15
3.05
3.30
3.93
4.84
5.90
6.93
7.82
8.50
8.96
9.19
9.19
8.95
8.48
7.85
7.16
6.60
6.31
6.42
6.90
7.63
8.38
8.96
9.25
9.24
9.05
8.86
8.87
9.25
10.06
11.28
12.81
14.48
16.19
17.79
19.22
20.35
21.06
21.19
20.55
18.99
16.48
13.14
9.28
5.27
1.56
-1.58
-4.04
-5.88
-7.31
-8.53
-9.73
-10.95
-12.17
-13.33
-14.34
-15.20
-15.90
-16.47
-16.96
-17.39
-17.76
-18.04
-18.19
-18.16
-18.00
-17.77
-17.53
-17.33
-17.11
-16.78
-16.28
-15.67
-15.08
-14.70
-14.60
-14.73
-14.92
-14.96
-14.73
-14.22
-13.52
-12.69
-11.75
-10.66
-9.40
-8.05
-6.77
-5.71
-4.97
-4.51
-4.24
-4.03
-3.76
-3.42
-3.00
-2.51
-1.98
-1.44
-0.96
-0.59
-0.39
-0.34
-0.36
-0.33
-0.16
0.27
1.00
2.01
3.18
4.35
5.26
5.66
5.39
4.43
2.92
1.16
-0.52
-1.82
-2.60
-2.85
-2.74
-2.55
-2.54
-2.89
-3.57
-4.43
-5.21
-5.70
-5.80
-5.56
-5.09
-4.50
-3.90
-3.35
-2.91
-2.66
-2.64
-2.84
-3.18
-3.54
-3.79
-3.88
-3.75
-3.43
-2.93
-2.29
-1.57
-0.91
-0.43
-0.21
-0.26
-0.53
-0.91
-1.34
-1.79
-2.26
-2.75
-3.11
-3.05
-2.21
-0.22
2.97
7.05
11.34
14.97
17.23
17.81
16.88
15.01
12.90
11.11
9.95
9.46
9.48
9.81
10.22
10.49
10.42
9.87
8.76
7.12
5.12
2.99
1.02
-0.57
-1.68
-2.29
-2.50
-2.44
-2.24
-2.04
-1.95
-2.07
-2.46
-3.13
-4.02
-4.95
-5.78
-6.35
-6.59
-6.51
-6.19
-5.73
-5.26
-4.90
-4.76
-4.90
-5.36
-6.12
-7.07
-8.01
-8.73
-9.00
-8.66
-7.68
-6.12
-4.16
-2.02
0.06
1.87
3.28
4.23
4.77
5.06
5.32
5.80
6.65
7.92
9.51
11.20
12.77
14.03
14.87
15.24
15.13
14.49
13.27
11.47
9.24
6.88
4.74
3.13
2.16
1.71
1.60
1.60
1.57
1.43
1.14
0.63
-0.17
-1.26
-2.59
-3.94
-5.07
-5.78
-5.99
-5.78
-5.36
-4.94
-4.71
-4.76
-5.08
-5.58
-6.13
-6.59
-6.80
-6.64
-5.98
-4.77
-3.07
-1.10
0.86
2.45
3.40
3.56
2.95
1.76
0.24
-1.28
-2.52
-3.27
-3.39
-2.82
-1.55
0.30
2.55
4.91
7.01
8.52
9.15
8.72
7.20
4.68
1.40
-2.30
-6.00
-9.25
-11.69
-13.23
-14.09
-14.75
-15.78
-17.56
-20.08
-22.98
-25.68
-27.69
-28.92
-29.72
-30.80
-32.90
-36.45
-41.37
-47.04
-52.54
-57.02
-60.07
-61.87
-63.15
-64.82
-67.55
-71.35
-75.51
-78.89
-80.34
-79.21
-75.55
-69.99
-63.44
-56.71
-50.25
-44.08
-37.47
-28.84
-15.63
5.33
36.94
80.72
136.04
200.05
268.45
336.75
401.29
459.64
510.22
551.59
581.88
598.88
600.69
586.51
557.24
515.39
464.50
408.34
350.28
292.91
238.18
187.58
142.30
103.15
70.33
43.19
20.19
-0.93
-22.65
-46.98
-74.61
-104.19
-132.26
-154.10
-165.52
-164.84
-154.03
-138.34
-124.38
-117.49
-120.02
-131.15
-148.32
-169.04
-191.78
-215.67
-239.37
-260.42
-275.62
-282.44
-280.31
-271.03
-257.81
-243.74
-230.50
-217.98
-205.00
-190.46
-174.17
-157.04
-140.64
-126.44
-115.23
-106.97
-100.86
-95.81
-90.85
-85.50
-79.78
-74.02
-68.55
-63.59
-59.21
-55.63
-53.25
-52.55
-53.70
-56.19
-58.79
-59.83
-57.88
-52.28
-43.47
-32.80
-22.26
-14.12
-10.66
-13.96
-25.31
-44.50
-69.13
-94.64
-115.10
-124.61
-119.00
-96.97
-60.79
-16.09
29.10
65.98
86.97
87.51
67.01
28.34
-23.60
-83.54
-146.52
-207.39
-259.89
-296.40
-309.16
-292.73
-246.23
-174.29
-85.87
7.92
96.31
170.51
224.55
255.70
264.61
255.33
234.44
209.59
187.68
173.35
168.47
172.38
182.53
195.10
205.74
210.42
206.44
193.21
172.41
147.07
120.31
94.17
69.06
44.39
19.51
-5.49
-29.55
-51.11
-68.73
-81.70
-90.12
-94.78
-96.85
-97.61
-98.34
-100.17
-103.82
-109.53
-116.85
-124.74
-131.87
-136.97
-139.31
-138.84
-136.14
-132.09
-127.43
-122.41
-116.63
-109.21
-99.11
-85.62
-68.70
-49.04
-27.98
-7.09
12.19
28.81
42.11
51.78
57.70
59.94
58.79
54.89
49.18
42.66
36.17
30.07
24.42
18.98
13.60
8.33
3.38
-0.97
-4.58
-7.43
-9.64
-11.30
-12.48
-13.22
-13.60
-13.75
-13.81
-13.84
-13.78
-13.48
-12.77
-11.62
-10.14
-8.55
-7.13
-6.06
-5.42
-5.10
-4.93
-4.74
-4.41
-3.99
-3.57
-3.30
-3.26
-3.47
-3.84
-4.31
-4.87
-5.53
-6.35
-7.34
-8.50
-9.83
-11.34
-13.04
-14.95
-16.98
-18.99
-20.78
-22.14
-22.89
-22.96
-22.36
-21.16
-19.54
-17.72
-15.97
-14.62
-13.92
-14.05
-14.90
-16.12
-17.17
-17.61
-17.35
-16.70
-16.33
-16.76
-17.97
-19.19
-19.02
-15.92
-8.81
2.52
17.34
34.15
51.22
66.99
80.56
91.92
101.94
112.07
123.68
137.41
152.60
167.15
177.73
180.64
172.76
152.35
119.66
76.80
27.16
-25.55
-78.36
-129.93
-180.87
-233.03
-287.94
-344.94
-400.11
-446.84
-477.97
-488.56
-477.91
-449.63
-409.85
-364.48
-317.13
-268.65
-218.35
-165.82
-112.10
-59.61
-10.82
33.01
72.46
109.63
146.99
186.51
229.38
276.07
326.53
379.79
433.27
482.25
520.32
540.93
539.68
516.15
474.27
421.06
364.13
309.24
259.14
213.88
172.37
134.19
100.48
73.76
56.74
50.93
55.91
69.44
88.26
109.01
128.96
145.93
158.03
163.55
161.32
151.35
135.29
116.20
97.62
82.22
70.96
63.06
56.75
50.35
42.90
34.35
25.19
15.97
6.98
-1.76
-10.29
-18.55
-26.35
-33.49
-39.89
-45.65
-51.00
-56.05
-60.80
-65.17
-69.12
-72.80
-76.49
-80.51
-85.00
-89.83
-94.63
-98.93
-102.37
-104.75
-106.18
-106.87
-107.10
-107.07
-106.81
-106.25
-105.29
-103.90
-102.15
-100.27
-98.55
-97.27
-96.58
-96.53
-97.07
-98.19
-99.92
-102.43
-105.88
-110.35
-115.68
-121.47
-127.16
-132.12
-135.81
-137.97
-138.71
-138.69
-139.22
-142.18
-149.55
-162.63
-181.18
-203.07
-224.54
-241.26
-249.71
-248.35
-237.99
-221.27
-201.50
-181.42
-162.43
-144.57
-126.95
-108.42
-88.04
-65.17
-39.39
-10.44
21.74
56.82
93.85
131.32
167.38
200.47
229.77
255.29
277.67
297.46
314.62
328.21
336.61
338.02
331.14
315.66
292.37
262.95
229.53
194.23
158.80
124.42
91.84
61.51
33.80
8.98
-12.66
-31.01
-46.13
-58.29
-67.94
-75.64
-81.89
-87.12
-91.67
-95.71
-99.32
-102.37
-104.55
-105.31
-104.02
-100.04
-92.92
-82.52
-69.01
-52.92
-35.01
-16.26
2.24
19.52
34.95
48.58
61.21
74.15
88.79
105.86
125.09
145.19
164.43
181.46
195.83
208.20
219.87
232.10
245.53
260.02
274.82
288.84
300.74
308.77
310.69
303.90
286.22
256.74
216.45
168.10
115.36
61.41
8.01
-44.72
-97.26
-149.38
-199.01
-242.40
-275.28
-294.63
-300.04
-293.91
-280.49
-264.25
-248.44
-234.42
-221.99
-210.15
-197.97
-184.79
-170.24
-153.92
-135.38
-114.47
-91.73
-68.59
-47.17
-29.60
-17.06
-9.32
-4.85
-1.64
1.62
4.70
5.80
2.34
-7.70
-24.82
-47.49
-72.76
-97.16
-117.56
-131.75
-138.39
-136.78
-126.72
-108.70
-84.03
-54.95
-24.38
4.70
29.92
49.88
64.28
73.54
78.34
79.26
76.68
70.93
62.45
51.97
40.47
29.00
18.48
9.49
2.21
-3.59
-8.32
-12.43
-16.17
-19.62
-22.59
-24.82
-26.09
-26.34
-25.73
-24.68
-23.78
-23.65
-24.84
-27.61
-31.84
-37.11
-42.77
-48.18
-52.93
-56.81
-59.85
-62.18
-63.92
-65.18
-66.16
-67.06
-68.14
-69.58
-71.35
-73.14
-74.47
-74.87
-74.07
-72.19
-69.67
-67.14
-65.08
-63.55
-61.97
-59.32
-54.37
-46.10
-34.14
-18.87
-1.32
17.10
34.94
50.98
64.34
74.53
81.42
85.18
86.13
84.63
80.90
74.97
66.79
56.45
44.34
31.23
18.19
6.27
-3.60
-10.79
-14.93
-15.79
-13.30
-7.58
0.95
11.55
23.17
34.65
44.89
53.01
58.45
60.95
60.55
57.56
52.42
45.70
37.94
29.66
21.20
12.83
4.70
-3.06
-10.36
-17.08
-23.18
-28.66
-33.62
-38.11
-42.07
-45.20
-47.04
-47.05
-45.01
-41.27
-36.79
-33.04
-31.64
-33.86
-40.31
-50.66
-63.78
-77.86
-90.86
-100.76
-105.94
-105.33
-98.55
-85.93
-68.51
-47.92
-26.20
-5.48
12.43
26.29
35.69
40.98
43.04
43.05
42.20
41.54
41.81
43.37
46.10
49.54
53.06
56.12
58.47
60.13
61.28
61.98
62.19
61.74
60.51
58.55
56.10
53.44
50.80
48.30
45.98
43.89
42.06
40.49
39.14
37.81
36.29
34.28
31.47
27.58
22.47
16.21
9.22
2.20
-4.14
-9.25
-12.93
-15.25
-16.31
-16.13
-14.59
-11.68
-7.76
-3.66
-0.48
0.87
0.02
-2.77
-6.83
-11.53
-16.57
-21.90
-27.52
-33.05
-37.64
-40.16
-39.60
-35.45
-27.97
-17.98
-6.60
5.11
16.35
26.64
35.66
43.06
48.32
50.81
50.04
46.03
39.59
32.22
25.74
21.66
20.69
22.53
26.19
30.44
34.33
37.34
39.29
40.00
39.27
36.81
32.53
26.63
19.65
12.29
5.22
-1.04
-6.23
-10.20
-12.93
-14.37
-14.50
-13.32
-10.93
-7.59
-3.66
0.48
4.51
8.26
11.72
14.92
17.90
20.66
23.13
25.23
26.79
27.67
27.79
27.38
27.02
27.62
30.05
34.73
41.32
48.66
55.12
59.22
59.99
57.26
51.53
43.75
35.05
26.57
19.37
14.28
11.76
11.75
13.61
16.25
18.41
19.00
17.47
13.99
9.47
5.26
2.67
2.48
4.61
8.15
11.81
14.40
15.28
14.45
12.40
9.76
7.02
4.39
1.86
-0.79
-3.81
-7.48
-11.94
-17.13
-22.76
-28.46
-33.89
-39.01
-44.04
-49.26
-54.77
-60.32
-65.37
-69.37
-72.06
-73.55
-74.25
-74.52
-74.48
-73.90
-72.33
-69.41
-65.07
-59.60
-53.60
-47.77
-42.61
-38.32
-34.79
-31.72
-28.80
-25.88
-23.03
-20.45
-18.36
-16.82
-15.64
-14.56
-13.27
-11.66
-9.89
-8.35
-7.54
-7.86
-9.46
-12.12
-15.30
-18.14
-19.61
-18.70
-14.62
-7.07
3.60
16.31
29.45
41.29
50.36
55.86
57.71
56.41
52.77
47.47
40.91
33.25
24.54
15.06
5.50
-2.99
-9.12
-11.96
-11.36
-8.15
-3.95
-0.55
0.74
-0.38
-3.08
-5.68
-6.12
-2.55
6.10
19.84
37.45
56.67
74.67
88.69
96.74
98.17
93.81
85.63
76.08
67.40
61.02
57.37
55.99
55.83
55.72
54.67
52.03
47.64
41.72
34.81
27.64
20.92
15.25
10.87
7.63
5.13
2.83
0.30
-2.72
-6.33
-10.51
-15.24
-20.53
-26.33
-32.58
-39.13
-45.86
-52.56
-58.96
-64.58
-68.80
-70.90
-70.20
-66.38
-59.56
-50.40
-39.92
-29.31
-19.62
-11.64
-5.77
-2.15
-0.86
-2.02
-5.76
-12.07
-20.56
-30.34
-40.16
-48.80
-55.36
-59.62
-61.89
-62.81
-62.99
-62.82
-62.41
-61.75
-60.86
-59.83
-58.79
-57.77
-56.67
-55.31
-53.53
-51.30
-48.76
-46.08
-43.30
-40.27
-36.54
-31.49
-24.57
-15.45
-4.21
8.63
22.32
36.00
48.84
60.20
69.51
76.22
79.75
79.63
75.67
68.26
58.51
48.13
39.03
32.70
29.70
29.50
30.75
31.91
31.85
30.23
27.37
23.89
20.25
16.59
12.75
8.55
3.98
-0.80
-5.52
-9.99
-14.10
-17.71
-20.58
-22.21
-22.05
-19.59
-14.61
-7.32
1.63
11.25
20.50
28.52
34.85
39.47
42.67
44.83
46.17
46.64
45.98
43.80
39.83
33.98
26.51
18.11
9.75
2.67
-2.07
-3.92
-3.04
-0.31
3.03
5.86
7.54
8.12
8.05
7.91
8.10
8.72
9.71
11.00
12.61
14.65
17.12
19.85
22.45
24.48
25.60
25.64
24.66
22.82
20.35
17.45
14.26
10.85
7.25
3.37
-0.90
-5.68
-11.03
-16.87
-22.98
-29.04
-34.65
-39.39
-42.95
-45.12
-45.90
-45.49
-44.32
-42.87
-41.55
-40.61
-40.05
-39.71
-39.35
-38.79
-37.85
-36.39
-34.30
-31.46
-27.81
-23.39
-18.35
-12.98
-7.59
-2.50
2.02
5.75
8.52
10.18
10.65
9.96
8.28
6.01
3.71
2.02
1.41
2.05
3.64
5.49
6.81
6.97
5.73
3.36
0.47
-2.18
-3.94
-4.42
-3.55
-1.53
1.25
4.32
7.14
9.24
10.31
10.26
9.37
8.16
7.31
7.45
8.90
11.58
15.05
18.73
22.11
24.95
27.34
29.49
31.62
33.71
35.53
36.77
37.20
36.84
35.94
34.95
34.32
34.41
35.35
37.07
39.32
41.81
44.24
46.46
48.40
50.17
51.89
53.73
55.71
57.75
59.55
60.68
60.66
59.05
55.60
50.36
43.64
35.91
27.71
19.47
11.50
3.96
-3.11
-9.80
-16.38
-23.16
-30.50
-38.61
-47.45
-56.70
-65.90
-74.60
-82.55
-89.67
-96.06
-101.82
-106.95
-111.32
-114.76
-117.13
-118.36
-118.47
-117.43
-115.15
-111.39
-105.86
-98.40
-89.08
-78.32
-66.83
-55.44
-44.82
-35.36
-27.07
-19.72
-13.01
-6.74
-0.96
4.14
8.33
11.39
13.22
13.87
13.51
12.43
10.91
9.27
7.78
6.62
5.94
5.89
6.53
7.82
9.57
11.39
12.82
13.54
13.46
12.86
12.18
11.89
12.32
13.52
15.39
17.72
20.32
22.96
25.40
27.37
28.61
28.99
28.52
27.30
25.37
22.58
18.64
13.27
6.44
-1.48
-9.75
-17.53
-24.23
-29.62
-33.90
-37.45
-40.61
-43.48
-45.86
-47.41
-47.80
-46.80
-44.40
-40.75
-36.05
-30.54
-24.42
-17.84
-10.98
-4.05
2.77
9.33
15.61
21.71
27.78
33.86
39.78
45.15
49.38
51.85
52.10
50.00
45.74
39.82
32.96
25.97
19.63
14.68
11.69
11.03
12.74
16.35
20.96
25.32
28.18
28.63
26.37
21.69
15.27
7.81
-0.18
-8.48
-16.93
-25.24
-32.85
-38.93
-42.69
-43.59
-41.56
-36.99
-30.60
-23.16
-15.34
-7.62
-0.31
6.32
12.00
16.52
19.80
22.01
23.46
24.56
25.61
26.71
27.79
28.70
29.36
29.75
29.93
29.92
29.67
29.06
28.02
26.51
24.62
22.48
20.22
17.98
15.79
13.78
12.03
10.70
9.90
9.72
10.17
11.18
12.57
14.07
15.35
16.15
16.35
16.02
15.32
14.43
13.50
12.56
11.54
10.36
8.93
7.22
5.20
2.82
0.03
-3.18
-6.79
-10.71
-14.82
-19.02
-23.20
-27.30
-31.21
-34.76
-37.71
-39.81
-40.87
-40.81
-39.74
-37.88
-35.47
-32.68
-29.65
-26.53
-23.56
-21.00
-19.07
-17.73
-16.66
-15.32
-13.18
-9.95
-5.75
-1.00
3.78
8.16
11.95
15.15
17.88
20.28
22.41
24.31
25.91
27.09
27.68
27.46
26.26
24.00
20.71
16.53
11.68
6.34
0.71
-5.10
-11.00
-16.84
-22.40
-27.42
-31.64
-34.94
-37.48
-39.59
-41.71
-44.02
-46.23
-47.56
-47.02
-43.81
-37.61
-28.82
-18.32
-7.18
3.60
13.38
21.82
28.83
34.51
39.05
42.70
45.74
48.36
50.62
52.47
53.78
54.41
54.34
53.62
52.44
50.99
49.40
47.76
46.06
44.28
42.37
40.27
37.82
34.81
30.95
26.02
19.98
13.12
5.89
-1.14
-7.47
-12.68
-16.48
-18.58
-18.75
-16.94
-13.33
-8.47
-3.13
1.98
6.39
9.96
12.78
14.97
16.61
17.69
18.21
18.25
17.94
17.47
16.96
16.55
16.28
16.21
16.27
16.32
16.04
15.14
13.47
11.15
8.57
6.17
4.15
2.37
0.40
-2.26
-5.89
-10.39
-15.30
-20.01
-23.98
-26.90
-28.67
-29.33
-28.96
-27.66
-25.55
-22.86
-19.92
-17.07
-14.67
-12.88
-11.71
-11.01
-10.53
-10.00
-9.20
-7.96
-6.25
-4.10
-1.60
1.16
4.12
7.28
10.68
14.42
18.52
22.89
27.31
31.39
34.63
36.53
36.74
35.27
32.49
29.05
25.72
23.07
21.29
20.23
19.44
18.48
16.99
14.74
11.67
7.91
3.93
0.57
-1.14
-0.32
3.24
8.72
14.47
18.57
19.52
16.77
10.78
2.64
-6.53
-15.99
-25.48
-35.02
-44.54
-53.70
-61.85
-68.27
-72.43
-74.16
-73.68
-71.50
-68.12
-63.90
-58.98
-53.30
-46.86
-39.83
-32.59
-25.67
-19.50
-14.29
-10.00
-6.48
-3.60
-1.36
0.09
0.62
0.24
-0.87
-2.33
-3.66
-4.45
-4.40
-3.23
-0.72
3.27
8.78
15.65
23.49
31.74
39.79
47.15
53.43
58.45
62.12
64.41
65.33
64.97
63.40
60.77
57.20
52.73
47.37
41.08
34.01
26.58
19.55
13.93
10.62
9.97
11.53
14.07
16.07
16.19
13.79
9.00
2.45
-5.08
-12.99
-20.89
-28.45
-35.28
-40.89
-44.84
-46.93
-47.28
-46.36
-44.73
-42.88
-41.06
-39.26
-37.27
-34.81
-31.71
-28.04
-24.03
-20.02
-16.29
-13.02
-10.23
-7.81
-5.66
-3.70
-1.91
-0.31
1.01
1.95
2.45
2.43
1.92
1.02
-0.09
-1.21
-2.11
-2.58
-2.54
-2.11
-1.55
-1.24
-1.59
-2.81
-4.91
-7.69
-10.81
-13.94
-16.86
-19.45
-21.62
-23.23
-24.05
-23.83
-22.40
-19.78
-16.27
-12.44
-9.03
-6.78
-6.20
-7.48
-10.40
-14.36
-18.54
-22.05
-24.15
-24.44
-22.96
-20.11
-16.52
-12.81
-9.36
-6.22
-3.27
-0.39
2.32
4.55
5.79
5.63
3.80
0.34
-4.44
-10.03
-15.77
-20.93
-24.78
-26.82
-26.86
-25.18
-22.41
-19.29
-16.41
-14.07
-12.25
-10.76
-9.44
-8.17
-6.84
-5.26
-3.17
-0.35
3.33
7.84
13.08
19.00
25.62
32.94
40.81
48.81
56.29
62.60
67.36
70.69
73.05
75.12
77.32
79.71
81.90
83.30
83.34
81.71
78.35
73.28
66.47
57.76
47.13
34.97
22.27
10.50
1.16
-4.79
-7.37
-7.52
-6.74
-6.49
-7.78
-11.00
-16.02
-22.39
-29.46
-36.48
-42.68
-47.40
-50.24
-51.19
-50.55
-48.72
-46.00
-42.44
-37.85
-32.03
-24.92
-16.82
-8.21
0.26
8.12
15.11
21.13
26.12
29.78
31.69
31.27
28.24
22.68
15.23
6.83
-1.52
-9.12
-15.68
-21.23
-26.02
-30.31
-34.35
-38.38
-42.60
-47.05
-51.40
-54.99
-56.83
-56.08
-52.39
-46.18
-38.51
-30.73
-23.96
-18.83
-15.41
-13.38
-12.39
-12.16
-12.56
-13.56
-15.12
-17.08
-19.21
-21.24
-22.93
-24.20
-25.07
-25.70
-26.31
-27.02
-27.93
-29.04
-30.39
-31.94
-33.69
-35.47
-37.01
-37.90
-37.74
-36.34
-33.77
-30.47
-26.98
-23.82
-21.28
-19.40
-17.94
-16.59
-15.07
-13.27
-11.15
-8.73
-6.04
-2.99
0.54
4.77
9.91
16.16
23.62
32.26
41.87
52.03
62.20
71.82
80.35
87.39
92.68
96.14
97.81
97.79
96.22
93.22
88.91
83.42
76.91
69.57
61.62
53.29
44.87
36.76
29.43
23.33
18.82
16.00
14.68
14.40
14.68
15.07
15.36
15.57
15.89
16.54
17.68
19.28
21.15
22.99
24.51
25.59
26.22
26.54
26.64
26.54
26.16
25.31
23.84
21.52
18.18
13.64
7.90
1.27
-5.57
-11.66
-16.04
-18.19
-18.30
-17.19
-16.06
-15.95
-17.41
-20.32
-24.14
-28.10
-31.57
-34.14
-35.59
-35.78
-34.65
-32.25
-28.82
-24.85
-20.99
-17.86
-15.84
-14.90
-14.64
-14.41
-13.60
-11.77
-8.90
-5.26
-1.42
1.97
4.33
5.29
4.77
2.90
0.01
-3.55
-7.47
-11.58
-15.78
-20.00
-24.11
-27.87
-31.03
-33.38
-34.81
-35.42
-35.45
-35.13
-34.58
-33.75
-32.40
-30.27
-27.22
-23.38
-19.10
-14.86
-11.05
-7.93
-5.52
-3.74
-2.50
-1.74
-1.35
-1.21
-1.08
-0.84
-0.39
0.17
0.68
1.00
1.10
1.09
1.05
1.05
1.01
0.84
0.41
-0.30
-1.23
-2.30
-3.39
-4.45
-5.46
-6.49
-7.54
-8.61
-9.62
-10.43
-10.96
-11.12
-10.91
-10.36
-9.51
-8.44
-7.18
-5.84
-4.52
-3.30
-2.20
-1.15
-0.03
1.21
2.49
3.62
4.38
4.67
4.54
4.25
4.06
4.18
4.70
5.60
6.81
8.24
9.81
11.35
12.73
13.84
14.67
15.33
15.99
16.78
17.68
18.52
18.98
18.71
17.43
15.05
11.67
7.61
3.22
-1.21
-5.61
-10.14
-15.09
-20.73
-27.07
-33.63
-39.59
-43.86
-45.43
-43.75
-38.94
-31.85
-23.77
-16.07
-9.75
-5.20
-2.24
-0.35
1.06
2.41
3.90
5.53
7.25
8.89
10.27
11.15
11.33
10.70
9.32
7.50
5.65
4.17
3.30
3.05
3.20
3.39
3.23
2.50
1.25
-0.22
-1.39
-1.82
-1.20
0.44
2.81
5.49
8.08
10.36
12.32
14.07
15.75
17.43
19.03
20.38
21.37
22.00
22.44
22.95
23.82
25.22
27.18
29.55
32.14
34.68
36.99
38.93
40.37
41.26
41.51
41.10
40.06
38.45
36.33
33.72
30.60
26.94
22.82
18.44
14.07
10.04
6.54
3.61
1.19
-0.83
-2.51
-3.84
-4.87
-5.73
-6.66
-7.88
-9.51
-11.50
-13.65
-15.81
-17.93
-20.19
-22.77
-25.77
-29.10
-32.47
-35.60
-38.41
-41.10
-44.02
-47.55
-51.79
-56.46
-60.94
-64.52
-66.57
-66.72
-64.61
-59.81
-51.74
-39.76
-23.70
-4.15
17.48
39.21
59.09
75.71
88.42
97.20
102.33
104.09
102.75
98.59
92.19
84.41
76.25
68.65
62.24
57.29
53.78
51.45
49.95
48.79
47.38
45.03
41.12
35.16
26.95
16.60
4.49
-8.83
-22.64
-36.09
-48.25
-58.26
-65.58
-70.19
-72.61
-73.66
-74.14
-74.52
-74.87
-75.06
-75.00
-74.75
-74.45
-74.07
-73.32
-71.71
-68.73
-64.21
-58.39
-51.86
-45.35
-39.59
-35.15
-32.45
-31.52
-31.96
-32.79
-32.66
-30.30
-25.07
-17.28
-8.01
1.27
9.26
15.14
18.48
19.12
17.14
13.07
8.03
3.70
1.83
3.54
8.96
17.13
26.58
35.81
43.59
48.94
51.14
49.80
45.27
38.90
32.70
28.60
27.46
28.55
29.85
29.09
24.70
16.43
5.12
-7.97
-21.60
-34.75
-46.34
-55.02
-59.38
-58.49
-52.58
-43.17
-32.60
-23.06
-15.64
-9.94
-4.42
2.69
12.51
25.00
39.06
53.06
65.51
75.54
82.94
87.91
90.74
91.68
90.83
88.29
84.23
78.93
72.57
65.19
56.71
47.16
36.89
26.69
17.51
10.16
4.87
1.10
-2.20
-6.33
-12.28
-20.47
-30.60
-41.80
-52.80
-62.35
-69.40
-73.38
-74.36
-72.95
-70.12
-66.90
-63.97
-61.46
-58.92
-55.56
-50.72
-44.15
-36.27
-28.00
-20.40
-14.25
-9.82
-6.82
-4.68
-2.89
-1.12
0.69
2.53
4.39
6.27
8.16
9.91
11.32
12.12
12.13
11.34
9.86
7.86
5.41
2.50
-0.93
-4.83
-8.96
-12.82
-15.87
-17.64
-17.97
-17.00
-15.06
-12.59
-9.92
-7.31
-4.93
-2.93
-1.40
-0.27
0.64
1.63
3.00
4.90
7.33
10.10
12.97
15.69
18.02
19.78
20.86
21.18
20.91
20.39
20.15
20.70
22.39
25.28
29.10
33.36
37.52
41.13
43.88
45.60
46.25
45.86
44.61
42.82
40.96
39.47
38.64
38.47
38.63
38.74
38.56
38.09
37.60
37.37
37.50
37.81
37.85
37.14
35.36
32.50
28.82
24.81
20.97
17.72
15.18
13.20
11.24
8.55
4.41
-1.60
-9.35
-18.12
-26.82
-34.44
-40.34
-44.45
-47.20
-49.18
-50.88
-52.55
-54.26
-56.02
-57.95
-60.22
-62.93
-66.05
-69.44
-73.00
-76.82
-81.31
-86.89
-93.78
-101.76
-110.12
-117.87
-124.10
-128.24
-130.18
-130.26
-128.97
-126.81
-124.00
-120.45
-115.75
-109.28
-100.49
-89.09
-75.30
-59.88
-43.97
-28.84
-15.47
-4.42
4.26
10.90
16.03
20.26
24.16
28.18
32.59
37.48
42.65
47.78
52.53
56.63
59.98
62.63
64.73
66.56
68.43
70.68
73.52
76.98
80.82
84.62
87.91
90.41
92.03
92.95
93.42
93.59
93.50
92.97
91.78
89.68
86.61
82.71
78.29
73.72
69.28
65.07
60.93
56.49
51.35
45.17
37.81
29.38
20.26
10.95
1.97
-6.27
-13.59
-20.06
-25.83
-31.14
-36.07
-40.59
-44.51
-47.52
-49.35
-49.71
-48.42
-45.48
-41.06
-35.51
-29.34
-23.06
-17.10
-11.65
-6.68
-2.10
2.05
5.53
7.97
9.04
8.75
7.49
5.92
4.60
3.81
3.41
3.04
2.46
1.65
0.82
0.12
-0.56
-1.69
-3.79
-7.25
-12.00
-17.62
-23.49
-29.09
-34.13
-38.48
-42.05
-44.63
-45.93
-45.63
-43.57
-39.78
-34.48
-28.02
-20.79
-13.15
-5.46
1.92
8.64
14.38
18.92
22.20
24.39
25.81
26.88
27.96
29.29
30.98
32.98
35.26
37.75
40.35
42.91
45.12
46.61
47.04
46.15
43.87
40.22
35.36
29.49
22.85
15.78
8.64
1.81
-4.42
-9.80
-14.12
-17.12
-18.53
-18.16
-16.00
-12.45
-8.14
-3.89
-0.40
1.99
3.31
3.94
4.31
4.73
5.25
5.68
5.73
5.21
4.10
2.56
0.90
-0.55
-1.52
-1.86
-1.52
-0.51
1.07
3.06
5.27
7.45
9.37
10.80
11.62
11.81
11.50
10.86
10.03
9.03
7.71
5.78
2.90
-1.14
-6.33
-12.35
-18.61
-24.43
-29.27
-32.83
-35.12
-36.31
-36.61
-36.20
-35.21
-33.81
-32.23
-30.75
-29.57
-28.73
-28.12
-27.51
-26.72
-25.66
-24.35
-22.86
-21.24
-19.55
-17.80
-15.96
-13.99
-11.86
-9.59
-7.24
-4.97
-2.99
-1.45
-0.43
0.05
0.01
-0.63
-1.98
-4.15
-7.12
-10.65
-14.31
-17.57
-19.99
-21.34
-21.64
-21.09
-19.92
-18.32
-16.33
-13.97
-11.18
-8.01
-4.59
-1.10
2.30
5.54
8.60
11.51
14.24
16.64
18.51
19.64
19.94
19.49
18.52
17.30
16.11
15.10
14.34
13.85
13.62
13.66
13.92
14.27
14.50
14.35
13.58
12.04
9.83
7.22
4.70
2.77
1.83
1.96
2.96
4.50
6.22
7.93
9.62
11.36
13.24
15.23
17.20
19.03
20.55
21.70
22.46
22.84
22.91
22.81
22.79
23.12
23.95
25.15
26.25
26.63
25.79
23.73
20.98
18.54
17.39
18.07
20.42
23.60
26.35
27.37
25.47
19.86
10.22
-2.95
-18.28
-33.75
-47.15
-56.94
-62.72
-65.22
-65.84
-65.84
-65.79
-65.46
-64.17
-61.38
-57.03
-51.55
-45.45
-38.92
-31.58
-22.62
-11.15
3.40
21.05
41.27
63.01
84.95
105.55
123.27
136.78
145.22
148.39
146.82
141.41
133.24
123.21
111.94
100.13
88.58
78.31
70.19
64.57
61.02
58.43
55.42
50.87
44.33
36.09
26.95
17.88
9.52
2.00
-4.99
-11.90
-19.03
-26.32
-33.30
-39.37
-43.99
-46.72
-47.27
-45.40
-41.09
-34.72
-27.24
-20.19
-15.19
-13.51
-15.54
-20.66
-27.53
-34.55
-40.24
-43.59
-44.25
-42.47
-39.11
-35.50
-33.11
-33.00
-35.50
-39.89
-44.75
-48.41
-49.69
-48.30
-44.88
-40.56
-36.43
-33.10
-30.50
-28.03
-24.74
-19.48
-11.01
1.70
19.10
40.31
62.68
81.97
93.35
93.10
80.16
56.83
28.09
-0.17
-23.08
-38.22
-45.75
-47.50
-45.85
-42.86
-40.24
-39.61
-42.76
-51.39
-66.53
-87.88
-113.68
-141.15
-167.25
-189.43
-206.08
-216.41
-220.40
-218.44
-211.13
-199.25
-183.60
-165.00
-144.49
-123.38
-103.34
-86.07
-72.79
-63.68
-57.76
-53.33
-48.78
-43.44
-37.77
-33.01
-30.23
-29.52
-29.71
-28.79
-24.77
-16.38
-3.37
13.78
34.48
58.43
85.78
116.64
150.56
186.12
220.98
252.28
277.36
294.24
301.90
300.18
289.47
270.39
243.78
210.75
172.94
132.66
92.69
55.82
24.17
-1.30
-20.84
-35.56
-46.70
-55.06
-60.77
-63.63
-63.52
-60.89
-56.74
-52.27
-48.49
-45.83
-44.21
-43.23
-42.45
-41.57
-40.44
-38.92
-36.86
-34.10
-30.54
-26.30
-21.74
-17.38
-13.78
-11.36
-10.37
-10.81
-12.51
-15.19
-18.54
-22.26
-26.08
-29.77
-33.19
-36.28
-39.06
-41.61
-44.09
-46.67
-49.52
-52.76
-56.38
-60.22
-63.99
-67.42
-70.36
-72.79
-74.86
-76.56
-77.60
-77.39
-75.14
-70.33
-62.89
-53.42
-42.84
-31.96
-21.10
-9.91
2.24
15.88
31.05
47.20
63.34
78.37
91.18
100.68
105.81
105.70
100.02
89.28
74.94
58.98
43.29
29.06
16.60
5.65
-4.16
-12.69
-19.21
-22.48
-21.26
-14.80
-3.28
12.12
29.39
46.37
61.39
73.83
84.14
93.40
102.52
111.60
119.88
126.09
129.09
128.56
124.98
119.33
112.55
105.08
96.77
87.07
75.24
60.65
42.92
21.95
-1.95
-27.94
-54.70
-80.50
-103.56
-122.44
-136.37
-145.37
-150.03
-151.30
-150.12
-147.31
-143.50
-139.08
-134.23
-128.79
-122.29
-114.22
-104.29
-92.76
-80.58
-69.10
-59.58
-52.68
-48.22
-45.27
-42.64
-39.34
-34.89
-29.29
-22.66
-14.94
-5.75
5.47
19.02
34.71
51.74
69.04
85.72
101.51
116.89
132.85
150.45
170.19
191.52
212.66
230.72
242.23
244.06
234.21
212.59
181.20
143.66
104.36
67.52
36.36
12.70
-3.18
-12.30
-16.54
-17.97
-18.21
-17.89
-16.65
-13.46
-7.29
2.25
14.75
29.10
43.98
58.31
71.45
83.17
93.33
101.74
108.17
112.53
115.19
117.09
119.56
123.85
130.45
138.65
146.49
151.41
151.10
144.51
132.26
116.32
99.21
83.07
68.83
56.15
43.76
30.17
14.12
-5.01
-27.22
-51.90
-77.93
-103.86
-128.13
-149.48
-166.97
-179.63
-185.96
-183.95
-171.72
-149.24
-119.90
-90.89
-71.65
-70.94
-93.82
-139.61
-201.78
-269.37
-328.99
-367.41
-374.24
-344.92
-282.82
-199.64
-112.90
-40.82
3.42
15.89
2.28
-25.42
-54.31
-75.14
-84.42
-83.46
-75.68
-64.02
-49.87
-33.57
-15.72
1.67
15.43
22.49
21.44
13.54
2.39
-7.68
-13.57
-14.64
-12.69
-10.65
-10.91
-14.09
-18.81
-22.55
-23.07
-19.62
-13.28
-6.49
-1.85
-0.93
-3.64
-8.39
-12.87
-15.14
-14.35
-10.96
-6.28
-1.86
1.25
2.75
3.04
2.85
2.87
3.45
4.53
5.83
7.01
7.92
8.59
9.15
9.70
10.18
10.45
10.32
9.76
8.93
8.09
7.46
7.10
6.90
6.62
6.06
5.15
3.83
2.13
0.04
-2.36
-4.89
-7.15
-8.68
-9.12
-8.39
-6.68
-4.42
-1.96
0.48
2.91
5.37
7.87
10.25
12.26
13.67
14.38
14.47
14.19
13.83
13.66
13.80
14.23
14.76
15.15
15.15
14.65
13.71
12.61
11.58
10.79
10.21
9.61
8.70
7.25
5.25
2.85
0.34
-1.99
-3.95
-5.46
-6.47
-6.94
-6.78
-5.90
-4.28
-2.00
0.77
3.74
6.60
9.09
11.04
12.40
13.20
13.57
13.70
13.78
14.02
14.60
15.73
17.45
19.61
21.76
23.24
23.47
22.17
19.49
16.00
12.44
9.34
6.92
5.04
3.43
1.84
0.21
-1.42
-2.95
-4.36
-5.65
-6.76
-7.60
-7.92
-7.49
-6.16
-3.97
-1.20
1.76
4.48
6.70
8.30
9.34
9.97
10.32
10.52
10.69
10.95
11.46
12.24
13.21
14.12
14.71
14.84
14.60
14.19
13.81
13.51
13.12
12.39
11.18
9.52
7.65
5.84
4.27
2.94
1.69
0.25
-1.58
-3.89
-6.61
-9.51
-12.20
-14.17
-14.98
-14.32
-12.19
-8.85
-4.79
-0.52
3.55
7.22
10.41
13.08
15.19
16.62
17.37
17.53
17.36
17.12
16.98
16.96
16.90
16.68
16.21
15.54
14.80
14.04
13.21
12.23
11.05
9.75
8.50
7.45
6.63
5.95
5.19
4.22
3.05
1.79
0.60
-0.48
-1.56
-2.81
-4.27
-5.80
-7.08
-7.77
-7.67
-6.80
-5.30
-3.36
-1.09
1.41
4.05
6.62
8.89
10.63
11.79
12.41
12.65
12.62
12.41
12.11
11.82
11.64
11.65
11.80
11.94
11.90
11.58
11.01
10.26
9.45
8.65
7.84
6.95
5.95
4.84
3.71
2.66
1.76
0.99
0.21
-0.77
-2.08
-3.73
-5.64
-7.63
-9.52
-11.17
-12.45
-13.18
-13.15
-12.14
-10.09
-7.13
-3.62
0.03
3.43
6.38
8.74
10.50
11.65
12.20
12.23
11.85
11.25
10.60
10.05
9.66
9.44
9.32
9.20
8.99
8.61
8.06
7.38
6.64
5.86
4.96
3.82
2.33
0.54
-1.40
-3.30
-5.00
-6.46
-7.76
-8.94
-10.03
-11.00
-11.75
-12.22
-12.33
-12.02
-11.21
-9.86
-7.94
-5.51
-2.70
0.28
3.17
5.72
7.77
9.24
10.18
10.73
11.06
11.35
11.70
12.14
12.64
13.11
13.46
13.57
13.38
12.88
12.13
11.31
10.64
10.25
10.12
10.12
10.07
9.84
9.41
8.86
8.29
7.80
7.39
7.03
6.73
6.56
6.61
6.99
7.77
8.92
10.41
12.22
14.36
16.84
19.61
22.53
25.35
27.69
29.06
28.85
26.47
21.56
14.14
4.74
-5.60
-15.55
-23.86
-29.64
-32.60
-32.99
-31.45
-28.74
-25.54
-22.36
-19.52
-17.21
-15.54
-14.53
-14.12
-14.15
-14.40
-14.67
-14.84
-14.88
-14.92
-15.04
-15.32
-15.76
-16.22
-16.57
-16.59
-16.08
-14.88
-12.95
-10.39
-7.46
-4.50
-1.79
0.48
2.31
3.74
4.83
5.60
6.10
6.37
6.51
6.64
6.80
6.95
7.01
6.92
6.70
6.44
6.21
6.01
5.73
5.22
4.39
3.27
2.03
0.91
0.06
-0.54
-1.09
-1.79
-2.80
-4.12
-5.57
-6.92
-8.02
-8.83
-9.40
-9.74
-9.81
-9.45
-8.52
-7.01
-5.03
-2.84
-0.68
1.30
3.05
4.55
5.81
6.81
7.49
7.81
7.75
7.40
6.86
6.31
5.84
5.57
5.52
5.65
5.87
6.07
6.14
5.99
5.59
4.96
4.23
3.52
3.01
2.77
2.73
2.71
2.49
1.89
0.80
-0.71
-2.52
-4.44
-6.25
-7.67
-8.45
-8.44
-7.69
-6.46
-5.17
-4.19
-3.68
-3.53
-3.45
-3.12
-2.37
-1.21
0.17
1.56
2.75
3.57
3.96
3.91
3.50
2.87
2.19
1.62
1.21
0.94
0.78
0.62
0.38
-0.04
-0.78
-1.92
-3.53
-5.51
-7.69
-9.85
-11.78
-13.35
-14.51
-15.25
-15.49
-15.12
-14.01
-12.05
-9.35
-6.14
-2.86
0.12
2.49
4.10
5.04
5.47
5.61
5.71
5.94
6.38
7.02
7.69
8.15
8.21
7.76
6.88
5.78
4.69
3.75
2.98
2.24
1.39
0.33
-0.98
-2.47
-4.08
-5.73
-7.36
-8.88
-10.15
-10.98
-11.18
-10.64
-9.35
-7.48
-5.29
-3.08
-1.04
0.75
2.32
3.72
4.94
5.90
6.48
6.62
6.40
5.98
5.59
5.37
5.31
5.36
5.40
5.31
5.03
4.49
3.63
2.39
0.80
-1.05
-2.96
-4.71
-6.13
-7.12
-7.71
-7.99
-8.14
-8.35
-8.77
-9.46
-10.31
-11.09
-11.44
-11.10
-9.94
-8.05
-5.70
-3.24
-1.02
0.72
1.84
2.36
2.41
2.20
1.96
1.93
2.25
2.94
3.89
4.89
5.70
6.15
6.16
5.80
5.19
4.44
3.64
2.82
1.97
1.08
0.12
-0.97
-2.25
-3.80
-5.65
-7.69
-9.69
-11.29
-12.14
-11.98
-10.76
-8.63
-5.89
-2.88
0.14
3.02
5.72
8.15
10.18
11.62
12.35
12.40
12.01
11.52
11.20
11.11
11.10
10.91
10.29
9.16
7.59
5.79
3.99
2.37
1.03
0.03
-0.68
-1.17
-1.56
-2.01
-2.68
-3.65
-4.93
-6.44
-7.97
-9.20
-9.86
-9.71
-8.70
-6.95
-4.70
-2.21
0.24
2.48
4.32
5.65
6.40
6.63
6.50
6.24
6.08
6.12
6.34
6.61
6.81
6.82
6.60
6.19
5.66
5.06
4.47
3.92
3.40
2.89
2.30
1.54
0.58
-0.61
-1.95
-3.39
-4.84
-6.27
-7.64
-8.87
-9.88
-10.52
-10.67
-10.22
-9.18
-7.64
-5.75
-3.71
-1.73
-0.00
1.35
2.24
2.70
2.83
2.80
2.77
2.86
3.10
3.46
3.86
4.20
4.42
4.47
4.31
3.85
3.02
1.76
0.08
-1.81
-3.65
-5.09
-5.92
-6.10
-5.81
-5.40
-5.20
-5.42
-6.10
-7.10
-8.25
-9.38
-10.35
-11.05
-11.34
-11.09
-10.15
-8.48
-6.09
-3.11
0.28
3.79
7.09
9.88
11.92
13.10
13.48
13.26
12.73
12.22
11.97
12.14
12.69
13.41
14.02
14.22
13.90
13.07
11.92
10.63
9.34
8.05
6.69
5.25
3.75
2.33
1.11
0.14
-0.65
-1.37
-2.13
-2.97
-3.81
-4.55
-5.12
-5.50
-5.76
-5.93
-6.00
-5.86
-5.35
-4.34
-2.81
-0.92
1.15
3.20
5.13
6.89
8.45
9.72
10.55
10.84
10.62
10.08
9.54
9.33
9.58
10.16
10.71
10.76
9.98
8.33
6.16
4.04
2.56
2.11
2.76
4.30
6.32
8.44
10.42
12.15
13.63
14.91
15.99
16.93
17.83
18.84
20.13
21.77
23.73
25.81
27.83
29.62
31.14
32.44
33.48
34.13
34.00
32.55
29.29
23.97
16.70
7.94
-1.59
-11.15
-20.11
-27.92
-34.15
-38.31
-40.02
-39.09
-35.81
-31.07
-26.26
-22.93
-22.36
-25.08
-30.75
-38.27
-46.05
-52.36
-55.64
-54.82
-49.44
-39.79
-26.86
-12.05
3.13
17.52
30.59
42.37
53.21
63.45
73.10
81.81
89.07
94.30
97.09
97.18
94.65
89.97
84.28
79.41
77.63
81.09
91.01
107.00
127.00
147.80
165.86
178.26
183.08
179.43
167.23
146.91
119.49
86.88
51.96
18.30
-10.81
-33.48
-49.91
-62.31
-74.19
-88.97
-108.69
-133.34
-161.03
-188.95
-214.76
-236.90
-254.69
-267.85
-275.86
-277.69
-272.07
-258.26
-236.73
-209.99
-181.54
-155.12
-133.94
-119.69
-112.42
-110.52
-111.32
-111.81
-109.91
-104.09
-93.68
-79.08
-61.44
-42.54
-24.43
-9.05
5.14
17.37
26.07
30.16
29.69
26.13
21.24
16.63
13.58
12.93
14.51
17.59
22.29
28.68
37.07
47.30
58.64
69.64
78.46
83.22
83.36
80.08
73.46
65.10
56.34
47.67
39.03
30.48
22.49
16.15
12.50
11.43
11.83
11.69
9.23
3.98
-2.76
-8.63
-10.90
-7.71
1.11
14.34
29.67
44.62
57.94
70.30
84.10
102.29
126.69
156.59
188.55
217.12
236.31
241.99
233.32
212.69
184.28
152.40
120.31
90.19
63.58
40.98
22.94
10.04
2.59
0.18
1.82
6.55
13.89
23.52
33.02
39.00
38.21
28.80
10.91
-13.57
-41.76
-70.88
-99.05
-127.68
-158.53
-191.75
-225.01
-254.43
-276.40
-288.83
-291.54
-274.80
-234.35
-173.75
-103.95
-37.03
19.69
64.44
98.35
123.01
139.36
145.82
140.71
124.30
99.46
70.74
42.93
20.28
5.91
5.04
18.22
42.48
72.07
100.03
120.27
129.55
128.80
122.57
116.97
115.17
117.70
123.26
130.00
136.36
140.91
142.10
138.29
128.42
111.08
87.06
59.57
32.97
10.71
-6.12
-18.74
-29.33
-39.69
-52.59
-69.37
-89.81
-112.95
-138.07
-165.31
-195.25
-228.06
-262.84
-300.08
-338.05
-372.24
-396.41
-405.07
-396.16
-372.40
-340.26
-307.68
-284.46
-275.11
-277.27
-283.81
-287.33
-284.24
-275.72
-264.90
-232.45
-168.52
-75.69
31.46
135.40
223.44
289.07
330.35
349.87
353.55
345.16
328.78
309.21
289.11
269.73
250.76
230.18
206.54
179.75
148.77
115.33
84.15
61.39
51.63
60.35
85.53
119.96
153.85
176.56
181.57
167.66
137.80
97.12
51.04
4.27
-37.74
-69.10
-85.65
-85.31
-68.76
-38.89
0.15
43.50
85.15
118.98
139.19
141.46
125.17
94.11
55.41
16.92
-15.94
-42.18
-64.12
-85.14
-107.51
-130.95
-153.08
-170.73
-181.37
-184.07
-179.72
-170.12
-157.33
-142.92
-127.75
-112.26
-96.71
-81.58
-67.60
-55.69
-46.59
-40.51
-37.07
-35.33
-34.14
-32.54
-30.07
-26.97
-23.91
-21.60
-20.45
-20.31
-20.59
-20.58
-19.83
-18.38
-16.61
-15.06
-14.03
-13.47
-13.00
-12.23
-10.87
-8.90
-6.57
-4.19
-2.10
-0.53
0.42
0.84
0.95
1.06
1.47
2.28
3.40
4.54
5.43
5.89
5.93
5.70
5.41
5.24
5.26
5.44
5.65
5.72
5.55
5.16
4.62
4.10
3.66
3.30
2.94
2.49
1.95
1.50
1.37
1.84
3.03
4.89
7.17
9.47
11.42
12.75
13.36
13.40
13.16
13.00
13.16
13.72
14.52
15.27
15.64
15.41
14.46
12.84
10.71
8.24
5.61
2.95
0.34
-2.20
-4.63
-6.94
-9.18
-11.40
-13.73
-16.32
-19.26
-22.57
-26.16
-29.81
-33.16
-35.77
-37.19
-37.13
-35.59
-32.92
-29.66
-26.47
-23.70
-21.38
-19.24
-16.90
-13.99
-10.24
-5.51
0.07
5.96
11.28
14.90
16.05
14.66
11.54
8.03
5.38
4.14
4.04
4.33
4.35
3.97
3.60
3.67
4.23
4.72
4.33
2.43
-0.90
-4.94
-8.62
-10.93
-11.47
-10.41
-8.38
-6.10
-4.10
-2.51
-1.16
0.24
1.91
3.83
5.76
7.36
8.34
8.56
8.14
7.37
6.64
6.26
6.31
6.61
6.79
6.46
5.36
3.61
1.58
-0.22
-1.46
-2.20
-2.86
-4.05
-6.21
-9.47
-13.52
-17.82
-21.76
-24.86
-26.66
-26.71
-24.60
-20.21
-14.04
-7.29
-1.57
1.83
2.55
1.43
0.06
-0.01
1.97
5.59
9.67
12.96
14.74
15.16
14.87
14.61
14.74
15.23
15.71
15.87
15.56
14.85
13.96
13.04
12.11
11.04
9.67
7.84
5.61
3.08
0.38
-2.40
-5.37
-8.56
-11.93
-15.15
-17.60
-18.48
-16.97
-12.61
-5.55
3.33
12.59
20.70
26.56
29.86
31.04
31.05
30.74
30.61
30.63
30.51
29.99
29.08
27.98
26.98
26.24
25.68
25.06
24.07
22.48
20.20
17.37
14.34
11.48
9.14
7.43
6.19
5.04
3.54
1.35
-1.59
-5.08
-8.74
-12.09
-14.71
-16.25
-16.50
-15.42
-13.07
-9.64
-5.40
-0.58
4.63
10.12
15.86
21.68
27.23
31.91
35.07
36.18
35.13
32.33
28.63
25.03
22.32
20.87
20.50
20.70
20.86
20.54
19.63
18.25
16.63
14.97
13.33
11.65
9.84
7.85
5.68
3.42
1.16
-1.07
-3.23
-5.29
-7.13
-8.53
-9.23
-9.01
-7.79
-5.67
-2.78
0.76
4.94
9.78
15.24
21.01
26.57
31.22
34.38
35.76
35.47
33.96
31.82
29.62
27.73
26.31
25.34
24.71
24.30
24.00
23.72
23.34
22.70
21.63
19.99
17.82
15.24
12.48
9.73
7.03
4.31
1.54
-1.08
-3.18
-4.30
-4.17
-2.90
-0.95
1.11
2.96
4.66
6.59
9.12
12.35
15.87
19.00
21.07
21.69
21.01
19.53
17.90
16.68
16.12
16.19
16.62
17.03
17.10
16.67
15.71
14.39
12.93
11.55
10.33
9.26
8.23
7.11
5.78
4.20
2.33
0.21
-2.02
-4.11
-5.65
-6.15
-5.21
-2.67
1.21
5.83
10.47
14.51
17.68
19.99
21.65
22.83
23.60
23.98
23.98
23.74
23.45
23.31
23.32
23.30
22.86
21.59
19.20
15.68
11.31
6.58
1.98
-2.13
-5.68
-8.81
-11.76
-14.71
-17.71
-20.71
-23.64
-26.53
-29.40
-32.17
-34.56
-36.02
-35.95
-33.90
-29.85
-24.26
-17.93
-11.81
-6.63
-2.78
-0.29
1.08
1.63
1.63
1.30
0.75
0.08
-0.64
-1.32
-1.96
-2.57
-3.19
-3.85
-4.50
-5.08
-5.49
-5.74
-5.96
-6.45
-7.52
-9.36
-11.87
-14.69
-17.27
-19.14
-20.04
-19.92
-18.90
-17.03
-14.31
-10.66
-6.16
-1.10
4.02
8.63
12.32
14.88
16.36
16.89
16.64
15.80
14.59
13.32
12.37
12.00
12.31
13.07
13.90
14.40
14.31
13.62
12.49
11.15
9.76
8.40
7.08
5.76
4.43
3.07
1.72
0.43
-0.69
-1.46
-1.70
-1.20
0.10
2.17
4.85
7.89
11.05
14.12
16.93
19.35
21.32
22.75
23.60
23.87
23.60
22.93
22.04
21.13
20.33
19.71
19.23
18.89
18.73
18.74
18.90
19.02
18.83
18.00
16.29
13.61
10.06
5.89
1.37
-3.18
-7.50
-11.31
-14.37
-16.46
-17.48
-17.48
-16.63
-15.25
-13.71
-12.38
-11.56
-11.38
-11.78
-12.57
-13.46
-14.16
-14.51
-14.42
-13.93
-13.13
-12.18
-11.27
-10.65
-10.57
-11.17
-12.48
-14.29
-16.27
-18.06
-19.38
-20.06
-20.19
-19.89
-19.43
-19.04
-18.85
-18.81
-18.78
-18.51
-17.77
-16.37
-14.23
-11.37
-7.89
-3.95
0.14
4.02
7.33
9.78
11.26
11.81
11.59
10.82
9.65
8.25
6.79
5.46
4.40
3.65
3.10
2.52
1.77
0.79
-0.30
-1.34
-2.24
-3.05
-3.93
-5.05
-6.49
-8.18
-9.97
-11.69
-13.22
-14.42
-15.18
-15.34
-14.78
-13.48
-11.53
-9.18
-6.72
-4.45
-2.54
-1.11
-0.17
0.26
0.20
-0.34
-1.26
-2.44
-3.66
-4.77
-5.67
-6.34
-6.85
-7.26
-7.58
-7.77
-7.80
-7.70
-7.58
-7.57
-7.82
-8.41
-9.33
-10.48
-11.64
-12.50
-12.68
-11.87
-9.90
-6.85
-3.01
1.25
5.60
9.85
13.88
17.58
20.76
23.15
24.54
24.95
24.61
23.93
23.25
22.76
22.38
21.93
21.22
20.18
18.89
17.51
16.12
14.73
13.29
11.74
10.13
8.57
7.21
6.08
5.11
4.07
2.79
1.23
-0.36
-1.53
-1.82
-0.95
0.95
3.35
5.58
6.95
7.11
6.07
4.15
1.81
-0.53
-2.57
-4.18
-5.29
-5.85
-5.80
-5.10
-3.82
-2.17
-0.55
0.58
0.88
0.25
-1.07
-2.53
-3.54
-3.61
-2.62
-0.85
1.08
2.43
2.63
1.36
-1.26
-4.78
-8.29
-10.47
-9.81
-5.00
4.42
17.64
32.45
45.87
55.09
58.42
55.72
48.26
37.97
26.71
15.77
5.86
-2.68
-9.68
-15.03
-18.94
-21.95
-24.84
-28.39
-33.05
-38.77
-44.95
-50.76
-55.43
-58.60
-60.35
-61.10
-61.35
-61.41
-61.26
-60.50
-58.56
-54.93
-49.39
-42.18
-33.97
-25.72
-18.42
-12.81
-9.17
-7.31
-6.60
-6.19
-5.25
-3.21
0.07
4.33
8.97
13.27
16.64
18.76
19.71
19.83
19.68
19.78
20.49
21.88
23.72
25.53
26.74
26.87
25.70
23.34
20.10
16.41
12.65
9.12
6.10
3.82
2.49
2.15
2.70
3.84
5.26
6.66
7.89
8.91
9.66
10.11
10.23
10.02
9.53
8.79
7.77
6.37
4.48
2.08
-0.66
-3.46
-6.03
-8.12
-9.65
-10.62
-11.08
-11.08
-10.75
-10.27
-9.84
-9.61
-9.59
-9.59
-9.36
-8.76
-7.73
-6.44
-5.05
-3.69
-2.42
-1.25
-0.41
-0.30
-1.53
-4.61
-9.78
-16.90
-25.51
-35.06
-45.09
-55.22
-65.05
-74.12
-82.00
-88.36
-93.26
-97.07
-100.38
-103.67
-106.99
-109.92
-111.73
-111.64
-109.24
-104.69
-98.68
-92.27
-86.46
-81.89
-78.56
-75.80
-72.38
-66.81
-57.66
-43.85
-24.95
-1.34
25.79
54.60
83.02
109.29
132.28
151.66
167.75
181.05
192.03
200.91
207.89
213.33
217.99
222.80
228.59
235.55
243.12
250.01
254.45
254.60
248.78
235.95
216.25
191.40
164.79
140.68
122.63
111.80
106.05
100.42
89.06
67.51
34.32
-8.93
-58.89
-112.04
-165.51
-216.97
-264.19
-304.80
-336.84
-359.63
-374.03
-381.98
-385.36
-385.06
-380.92
-372.39
-359.28
-342.09
-321.68
-298.60
-272.92
-244.44
-213.35
-180.54
-147.49
-115.67
-86.10
-59.33
-35.64
-15.36
1.19
14.21
24.84
35.34
48.56
66.79
90.71
118.69
146.82
169.90
182.87
182.59
169.07
145.78
118.65
94.08
76.82
68.51
67.66
70.89
74.84
77.47
78.45
78.49
78.22
77.66
76.30
73.91
71.24
70.02
72.38
80.00
93.47
112.29
135.14
160.30
185.84
209.67
229.38
242.23
245.32
236.07
213.09
177.16
131.88
83.36
38.82
4.25
-17.55
-27.83
-30.89
-31.84
-34.19
-38.48
-42.68
-43.77
-39.61
-29.97
-16.29
-0.75
14.84
29.48
42.82
54.75
64.95
72.75
77.44
78.62
76.35
71.24
64.17
56.02
47.48
39.03
30.95
23.53
17.02
11.78
8.16
6.49
7.06
9.92
14.86
21.34
28.60
35.84
42.35
47.63
51.31
53.07
52.67
50.03
45.40
39.38
32.78
26.39
20.67
15.63
10.90
5.98
0.57
-5.27
-11.08
-16.17
-19.93
-22.07
-22.87
-23.19
-24.21
-27.16
-32.90
-41.80
-53.68
-68.02
-84.17
-101.52
-119.51
-137.45
-154.41
-169.17
-180.32
-186.69
-187.68
-183.58
-175.62
-165.72
-155.93
-147.90
-142.37
-138.97
-136.38
-132.77
-126.42
-116.24
-102.09
-84.72
-65.52
-46.17
-28.29
-13.37
-2.70
2.78
2.70
-2.25
-10.20
-18.32
-23.53
-23.67
-18.18
-8.28
3.67
15.25
25.00
32.81
39.51
46.06
52.65
58.46
62.05
62.15
58.44
51.72
43.63
36.17
31.25
30.54
35.38
46.61
64.13
86.52
110.94
133.60
150.84
160.12
160.72
153.62
140.92
124.98
107.97
91.44
76.41
63.14
50.97
38.18
22.00
-0.71
-32.46
-73.95
-123.32
-176.17
-226.41
-267.74
-295.41
-307.57
-305.64
-293.56
-276.16
-257.38
-239.05
-220.81
-200.88
-177.21
-148.54
-114.68
-76.51
-35.70
5.42
43.96
76.70
100.56
113.44
115.00
107.18
94.07
81.06
73.50
75.23
87.24
107.14
129.67
148.06
155.89
148.98
126.71
92.50
53.01
16.50
-9.43
-19.95
-14.24
4.53
30.52
57.27
79.60
94.58
101.44
100.82
94.00
82.46
67.83
52.13
37.82
27.68
24.42
30.02
44.86
67.06
92.40
115.26
130.47
135.12
129.67
117.48
103.02
89.55
77.50
64.44
46.37
19.74
-16.84
-61.78
-110.93
-158.69
-199.59
-229.69
-247.40
-253.54
-250.46
-240.91
-226.84
-209.09
-187.89
-163.61
-137.66
-112.43
-90.45
-73.29
-60.83
-51.41
-42.92
-33.85
-23.71
-12.54
0.02
15.26
34.68
58.70
85.40
110.63
129.56
138.95
138.88
132.85
126.06
122.91
125.18
131.63
139.17
144.60
146.03
143.34
137.78
131.39
126.23
124.05
125.82
131.31
138.78
145.10
146.65
140.69
126.53
105.89
82.18
58.85
37.89
18.98
-0.38
-23.97
-55.74
-98.39
-152.27
-214.36
-278.24
-335.00
-375.47
-392.85
-384.87
-354.34
-307.97
-254.10
-200.37
-152.18
-112.50
-82.31
-61.39
-48.81
-43.11
-42.37
-44.42
-47.19
-49.29
-50.34
-51.11
-52.97
-57.16
-63.88
-71.87
-78.62
-81.12
-76.92
-65.11
-46.58
-23.76
0.17
22.38
41.25
56.73
70.03
82.71
95.99
110.38
125.91
142.60
160.64
180.31
201.49
223.46
244.84
263.77
278.10
285.62
284.37
273.26
252.78
225.24
194.29
163.62
135.70
111.30
90.06
71.55
56.00
44.09
35.86
30.05
24.20
15.80
3.69
-11.29
-26.80
-40.34
-50.52
-57.62
-63.07
-68.47
-74.71
-81.64
-88.48
-94.32
-98.65
-101.50
-103.33
-104.49
-105.03
-104.54
-102.40
-98.20
-92.03
-84.62
-77.03
-70.23
-64.64
-60.03
-55.82
-51.41
-46.67
-41.97
-37.95
-35.18
-33.74
-33.33
-33.40
-33.47
-33.43
-33.44
-33.73
-34.42
-35.41
-36.51
-37.60
-38.76
-40.24
-42.27
-44.81
-47.57
-50.06
-51.83
-52.69
-52.80
-52.51
-52.24
-52.16
-52.15
-51.84
-50.86
-48.98
-46.29
-43.14
-39.94
-36.95
-34.19
-31.45
-28.64
-25.84
-23.36
-21.47
-20.16
-19.00
-17.32
-14.52
-10.48
-5.57
-0.49
4.02
7.42
9.42
9.92
8.86
6.39
2.87
-1.04
-4.59
-7.20
-8.66
-9.16
-9.01
-8.35
-7.11
-5.10
-2.42
0.31
2.13
2.20
0.43
-2.25
-4.05
-3.04
2.15
11.65
24.28
37.88
49.82
57.75
60.24
57.19
50.02
41.17
33.33
28.29
26.28
25.91
25.11
22.30
17.38
11.66
7.39
6.13
7.98
11.59
14.96
16.52
15.66
12.72
8.26
2.77
-3.88
-12.13
-22.19
-33.60
-45.29
-55.77
-63.71
-68.64
-70.30
-69.50
-67.55
-65.80
-65.10
-65.45
-65.81
-64.47
-60.59
-52.60
-41.35
-29.25
-19.60
-15.24
-17.33
-24.54
-33.37
-41.13
-42.71
-37.12
-26.20
-13.64
-3.20
2.99
5.39
6.53
6.98
12.10
23.17
40.09
61.56
85.20
107.53
124.27
131.20
122.08
100.07
67.22
27.01
-17.21
-63.83
-112.98
-165.28
-197.91
-232.71
-258.01
-265.08
-248.08
-207.30
-150.12
-88.62
-34.73
4.90
28.21
46.82
70.91
107.17
155.16
207.56
253.34
282.43
289.44
272.44
239.49
197.39
151.23
102.95
52.25
-0.85
-53.50
-99.35
-131.86
-142.82
-130.75
-100.16
-59.79
-19.10
15.07
40.11
56.90
67.06
73.37
76.43
75.87
71.30
63.05
52.57
42.38
35.33
33.15
36.60
44.16
52.94
59.92
63.25
62.98
60.76
58.87
59.04
61.61
65.30
67.92
67.23
61.96
52.45
40.65
29.60
22.48
21.60
27.61
39.29
53.82
67.68
77.80
82.47
82.01
79.05
78.15
84.93
104.52
139.65
188.90
245.95
300.73
342.21
362.03
357.07
329.95
287.10
235.67
180.84
124.89
68.02
9.94
-48.70
-105.98
-159.14
-205.42
-242.49
-268.66
-282.41
-282.51
-268.44
-241.29
-204.65
-164.66
-128.82
-103.86
-93.25
-95.66
-105.33
-114.19
-114.97
-103.82
-81.52
-52.68
-23.83
-1.09
11.57
12.98
4.75
-9.77
-26.73
-42.91
-56.49
-67.00
-74.79
-80.36
-84.04
-85.97
-86.38
-85.91
-85.34
-85.24
-85.62
-85.87
-85.03
-82.21
-77.04
-69.83
-61.59
-53.75
-47.89
-45.48
-47.55
-54.58
-66.31
-81.73
-99.00
-115.82
-129.75
-139.02
-142.93
-141.98
-137.43
-130.35
-120.67
-106.81
-86.61
-58.91
-25.46
8.26
34.21
44.11
32.22
-3.21
-59.75
-131.91
-212.22
-292.23
-363.30
-417.63
-449.80
-458.37
-446.53
-421.11
-390.12
-360.04
-334.01
-311.93
-291.74
-271.21
-248.79
-223.83
-196.13
-165.64
-132.47
-97.07
-60.28
-23.13
13.23
48.02
80.70
110.98
138.65
163.43
185.04
203.29
218.20
229.98
239.07
245.94
251.01
254.70
257.39
259.55
261.68
264.28
267.87
273.14
281.05
292.51
307.68
325.11
341.44
352.00
352.47
340.64
317.53
286.98
254.03
222.94
195.83
172.73
152.53
134.27
117.75
103.36
91.39
81.50
72.78
64.24
55.32
46.09
37.00
28.56
21.02
14.22
7.88
1.79
-3.86
-8.49
-11.20
-11.07
-7.47
-0.36
9.52
20.79
31.70
40.61
46.44
48.86
48.28
45.48
41.24
36.07
30.25
24.01
17.77
12.21
8.08
5.96
5.93
7.56
10.15
12.95
15.43
17.37
18.72
19.49
19.62
18.99
17.53
15.27
12.44
9.37
6.42
3.87
1.82
0.29
-0.80
-1.49
-1.80
-1.73
-1.34
-0.77
-0.18
0.26
0.47
0.43
0.19
-0.22
-0.82
-1.64
-2.73
-4.04
-5.43
-6.72
-7.70
-8.21
-8.22
-7.78
-7.07
-6.25
-5.48
-4.85
-4.42
-4.22
-4.29
-4.63
-5.18
-5.81
-6.41
-6.89
-7.32
-7.86
-8.66
-9.82
-11.23
-12.66
-13.79
-14.33
-14.13
-13.13
-11.40
-9.08
-6.36
-3.44
-0.54
2.20
4.67
6.83
8.64
10.07
11.08
11.67
11.93
11.99
12.04
12.17
12.37
12.53
12.55
12.35
11.98
11.52
11.01
10.46
9.78
8.93
7.91
6.80
5.72
4.76
3.95
3.22
2.45
1.54
0.37
-1.12
-2.95
-5.07
-7.36
-9.67
-11.83
-13.72
-15.24
-16.37
-17.08
-17.38
-17.25
-16.70
-15.82
-14.64
-13.22
-11.54
-9.51
-7.12
-4.39
-1.48
1.33
3.78
5.71
7.09
8.02
8.60
8.89
8.92
8.68
8.25
7.75
7.38
7.21
7.24
7.31
7.27
7.02
6.63
6.23
5.99
5.96
6.08
6.21
6.18
5.86
5.22
4.25
3.05
1.68
0.21
-1.29
-2.78
-4.19
-5.48
-6.60
-7.55
-8.36
-9.06
-9.67
-10.18
-10.51
-10.55
-10.23
-9.47
-8.29
-6.76
-5.05
-3.26
-1.47
0.32
2.17
4.11
6.05
7.77
8.95
9.37
9.00
8.10
7.05
6.24
5.81
5.66
5.57
5.35
4.94
4.42
3.87
3.27
2.52
1.54
0.45
-0.51
-1.09
-1.18
-0.93
-0.68
-0.79
-1.42
-2.50
-3.81
-5.11
-6.30
-7.41
-8.52
-9.63
-10.66
-11.44
-11.79
-11.62
-10.94
-9.87
-8.56
-7.24
-6.04
-5.03
-4.19
-3.40
-2.60
-1.70
-0.68
0.47
1.69
2.97
4.24
5.42
6.45
7.23
7.71
7.91
7.87
7.66
7.38
7.03
6.65
6.24
5.79
5.32
4.80
4.17
3.36
2.33
1.11
-0.19
-1.44
-2.60
-3.76
-5.10
-6.81
-8.90
-11.20
-13.41
-15.23
-16.48
-17.18
-17.46
-17.44
-17.16
-16.57
-15.60
-14.22
-12.51
-10.52
-8.25
-5.66
-2.76
0.22
2.87
4.68
5.27
4.62
3.05
1.10
-0.72
-2.19
-3.31
-4.16
-4.80
-5.15
-5.06
-4.47
-3.47
-2.30
-1.21
-0.37
0.17
0.48
0.63
0.72
0.78
0.83
0.85
0.77
0.50
-0.06
-0.93
-2.05
-3.27
-4.37
-5.21
-5.70
-5.88
-5.79
-5.49
-4.95
-4.16
-3.13
-1.94
-0.68
0.55
1.67
2.65
3.45
4.03
4.36
4.46
4.39
4.27
4.22
4.27
4.40
4.49
4.41
4.08
3.48
2.67
1.72
0.77
-0.09
-0.74
-1.18
-1.47
-1.73
-2.07
-2.55
-3.15
-3.81
-4.47
-5.11
-5.78
-6.50
-7.28
-8.02
-8.56
-8.74
-8.45
-7.67
-6.52
-5.14
-3.74
-2.47
-1.41
-0.56
0.14
0.79
1.43
2.08
2.69
3.19
3.53
3.73
3.84
3.92
4.00
4.05
4.02
3.86
3.59
3.22
2.78
2.24
1.59
0.78
-0.13
-0.99
-1.64
-1.99
-2.06
-1.96
-1.85
-1.85
-2.02
-2.38
-2.92
-3.64
-4.50
-5.42
-6.23
-6.74
-6.84
-6.54
-5.96
-5.32
-4.76
-4.33
-3.97
-3.57
-3.04
-2.37
-1.64
-0.97
-0.45
-0.10
0.12
0.26
0.39
0.51
0.62
0.71
0.78
0.88
1.04
1.24
1.42
1.50
1.42
1.16
0.72
0.13
-0.59
-1.41
-2.33
-3.30
-4.31
-5.31
-6.28
-7.20
-8.04
-8.78
-9.37
-9.79
-10.02
-10.07
-9.93
-9.57
-8.99
-8.14
-7.02
-5.69
-4.21
-2.69
-1.15
0.37
1.87
3.32
4.66
5.77
6.59
7.10
7.32
7.28
7.00
6.44
5.59
4.43
3.04
1.55
0.11
-1.19
-2.33
-3.36
-4.37
-5.43
-6.50
-7.51
-8.34
-8.87
-9.08
-8.98
-8.67
-8.25
-7.83
-7.51
-7.37
-7.46
-7.76
-8.20
-8.67
-9.06
-9.33
-9.41
-9.29
-8.90
-8.17
-7.04
-5.53
-3.78
-1.97
-0.32
0.99
1.88
2.32
2.34
1.95
1.24
0.31
-0.68
-1.55
-2.10
-2.21
-1.86
-1.09
-0.08
0.97
1.87
2.48
2.74
2.67
2.35
1.90
1.41
0.93
0.50
0.08
-0.34
-0.79
-1.32
-1.91
-2.53
-3.18
-3.81
-4.41
-4.90
-5.24
-5.32
-5.09
-4.52
-3.70
-2.74
-1.80
-1.00
-0.41
-0.05
0.11
0.09
-0.03
-0.19
-0.31
-0.31
-0.18
0.05
0.31
0.56
0.81
1.07
1.36
1.64
1.83
1.87
1.77
1.57
1.38
1.24
1.12
0.95
0.63
0.14
-0.46
-1.07
-1.57
-1.90
-2.05
-2.10
-2.14
-2.28
-2.57
-3.02
-3.56
-4.08
-4.42
-4.46
-4.15
-3.56
-2.81
-2.06
-1.48
-1.11
-0.96
-0.95
-0.97
-0.94
-0.84
-0.68
-0.53
-0.41
-0.30
-0.15
0.12
0.54
1.06
1.58
1.99
2.24
2.31
2.24
2.01
1.63
1.05
0.29
-0.58
-1.46
-2.27
-2.97
-3.60
-4.26
-5.01
-5.87
-6.76
-7.57
-8.20
-8.59
-8.69
-8.45
-7.80
-6.65
-4.99
-2.86
-0.47
1.93
4.07
5.77
7.05
8.05
8.92
9.75
10.49
10.93
10.86
10.13
8.75
6.88
4.80
2.76
0.99
-0.41
-1.38
-1.96
-2.23
-2.32
-2.33
-2.37
-2.48
-2.66
-2.84
-2.99
-3.05
-3.06
-3.11
-3.32
-3.79
-4.57
-5.62
-6.85
-8.15
-9.42
-10.60
-11.58
-12.23
-12.40
-11.95
-10.86
-9.28
-7.41
-5.54
-3.83
-2.35
-1.09
-0.02
0.91
1.67
2.25
2.65
2.89
3.01
3.02
2.96
2.85
2.74
2.74
2.89
3.19
3.53
3.74
3.64
3.13
2.24
1.12
-0.06
-1.14
-2.05
-2.84
-3.59
-4.42
-5.43
-6.63
-8.00
-9.44
-10.80
-11.87
-12.46
-12.40
-11.64
-10.23
-8.35
-6.21
-4.06
-2.08
-0.41
0.86
1.74
2.27
2.60
2.86
3.18
3.66
4.32
5.09
5.81
6.31
6.43
6.12
5.42
4.50
3.56
2.76
2.15
1.71
1.31
0.83
0.16
-0.73
-1.78
-2.88
-3.90
-4.79
-5.60
-6.46
-7.50
-8.69
-9.83
-10.59
-10.64
-9.86
-8.42
-6.64
-4.90
-3.43
-2.27
-1.32
-0.47
0.31
0.97
1.46
1.83
2.22
2.85
3.88
5.31
6.97
8.57
9.86
10.70
11.12
11.30
11.38
11.41
11.33
11.00
10.33
9.35
8.21
7.10
6.18
5.47
4.89
4.29
3.61
2.81
1.95
1.11
0.29
-0.51
-1.35
-2.19
-2.89
-3.21
-2.95
-1.98
-0.39
1.53
3.46
5.10
6.27
6.92
7.12
6.98
6.60
6.09
5.51
4.93
4.39
3.90
3.48
3.16
2.96
2.88
2.90
2.99
3.04
3.00
2.82
2.48
2.01
1.46
0.89
0.32
-0.25
-0.82
-1.41
-1.99
-2.49
-2.85
-3.04
-3.11
-3.21
-3.47
-3.93
-4.45
-4.77
-4.53
-3.48
-1.60
0.91
3.61
6.08
8.02
9.38
10.37
11.35
12.68
14.58
17.02
19.72
22.23
24.17
25.39
26.06
26.67
27.71
29.55
32.14
35.04
37.57
39.09
39.24
37.98
35.49
32.03
27.97
23.86
20.35
18.01
16.89
16.23
14.65
10.69
3.59
-6.26
-17.51
-28.55
-38.39
-47.05
-55.36
-64.24
-73.96
-83.92
-92.85
-99.47
-103.10
-103.83
-102.46
-100.13
-97.91
-96.46
-95.86
-95.61
-94.72
-92.02
-86.37
-77.08
-64.12
-48.17
-30.42
-12.32
4.86
20.25
33.37
44.07
52.32
58.14
61.72
63.47
64.05
64.24
64.67
65.54
66.68
67.64
67.97
67.45
66.18
64.48
62.80
61.49
60.64
60.07
59.31
57.68
54.58
49.60
42.77
34.56
25.68
16.96
9.09
2.45
-2.88
-7.08
-10.46
-13.33
-15.93
-18.29
-20.27
-21.53
-21.54
-19.75
-15.73
-9.36
-0.94
8.79
18.77
27.82
34.95
39.62
41.92
42.44
42.09
41.66
41.59
41.72
41.42
39.90
36.44
30.72
22.82
13.21
2.52
-8.49
-19.03
-28.36
-35.87
-41.15
-44.16
-45.15
-44.54
-42.78
-40.22
-37.02
-33.28
-29.11
-24.71
-20.35
-16.30
-12.70
-9.62
-7.12
-5.37
-4.69
-5.47
-8.02
-12.37
-18.24
-25.09
-32.26
-39.19
-45.41
-50.60
-54.53
-57.03
-58.05
-57.68
-56.13
-53.74
-50.80
-47.51
-43.93
-40.04
-35.79
-31.22
-26.43
-21.57
-16.87
-12.51
-8.69
-5.56
-3.22
-1.68
-0.94
-0.91
-1.52
-2.72
-4.48
-6.76
-9.47
-12.43
-15.42
-18.28
-20.89
-23.30
-25.64
-28.03
-30.54
-33.04
-35.28
-36.91
-37.59
-37.08
-35.31
-32.39
-28.62
-24.39
-20.14
-16.17
-12.56
-9.04
-5.15
-0.27
6.04
13.94
23.20
33.33
43.79
54.15
64.19
73.85
83.09
91.79
99.76
106.77
112.57
116.99
119.83
120.84
119.72
116.18
110.06
101.45
90.77
78.67
65.94
53.36
41.47
30.53
20.33
10.34
-0.17
-11.81
-24.85
-39.00
-53.50
-67.22
-79.01
-87.93
-93.42
-95.42
-94.27
-90.58
-85.08
-78.43
-71.10
-63.44
-55.70
-48.15
-41.06
-34.69
-29.20
-24.60
-20.75
-17.43
-14.40
-11.48
-8.52
-5.44
-2.18
1.23
4.76
8.35
12.03
15.97
20.45
25.85
32.49
40.51
49.82
60.13
71.04
82.08
92.87
103.04
112.21
119.96
125.88
129.58
130.86
129.67
126.13
120.43
112.77
103.31
92.20
79.58
65.62
50.45
34.24
17.22
-0.21
-17.48
-33.87
-48.76
-61.72
-72.69
-81.91
-89.75
-96.49
-102.17
-106.46
-108.77
-108.42
-104.87
-98.00
-88.21
-76.33
-63.40
-50.35
-37.77
-25.90
-14.72
-4.26
5.29
13.56
20.19
25.01
28.12
29.87
30.65
30.74
30.23
29.10
27.35
25.12
22.69
20.40
18.55
17.23
16.35
15.69
15.03
14.18
13.10
11.83
10.47
9.13
7.87
6.69
5.51
4.19
2.59
0.69
-1.44
-3.62
-5.64
-7.37
-8.79
-9.99
-11.10
-12.22
-13.40
-14.67
-16.12
-17.82
-19.86
-22.20
-24.69
-27.10
-29.18
-30.79
-31.83
-32.26
-32.02
-31.00
-29.10
-26.28
-22.53
-18.02
-12.93
-7.52
-2.07
3.16
7.90
11.92
15.07
17.29
18.66
19.34
19.60
19.67
19.73
19.80
19.81
19.59
19.05
18.19
17.13
16.02
14.98
14.04
13.25
12.67
12.41
12.53
12.95
13.38
13.31
12.24
9.85
6.19
1.62
-3.37
-8.28
-12.82
-16.88
-20.50
-23.67
-26.39
-28.58
-30.16
-31.07
-31.26
-30.72
-29.39
-27.23
-24.24
-20.52
-16.33
-12.10
-8.34
-5.45
-3.66
-2.85
-2.67
-2.64
-2.43
-1.96
-1.42
-1.08
-1.20
-1.82
-2.80
-3.93
-5.03
-5.94
-6.56
-6.73
-6.24
-4.90
-2.64
0.39
3.80
7.08
9.76
11.50
12.26
12.18
11.59
10.83
10.17
9.83
9.88
10.35
11.12
12.03
12.84
13.19
12.73
11.15
8.24
4.01
-1.23
-6.93
-12.35
-16.77
-19.62
-20.72
-20.21
-18.44
-15.88
-12.90
-9.76
-6.61
-3.58
-0.74
1.78
3.87
5.47
6.54
7.11
7.26
7.09
6.73
6.32
5.98
5.81
5.83
5.97
6.12
6.17
6.06
5.83
5.59
5.44
5.37
5.26
4.91
4.13
2.91
1.33
-0.42
-2.19
-3.92
-5.62
-7.30
-8.90
-10.27
-11.24
-11.73
-11.74
-11.37
-10.78
-10.11
-9.42
-8.76
-8.12
-7.55
-7.11
-6.87
-6.85
-6.99
-7.19
-7.28
-7.19
-6.90
-6.48
-6.01
-5.57
-5.19
-4.81
-4.44
-4.11
-3.92
-4.00
-4.38
-5.00
-5.67
-6.13
-6.17
-5.66
-4.60
-3.16
-1.53
0.02
1.30
2.23
2.86
3.30
3.67
4.01
4.27
4.34
4.15
3.76
3.37
3.20
3.34
3.71
4.08
4.15
3.79
3.05
2.18
1.42
0.91
0.59
0.26
-0.23
-0.96
-1.87
-2.84
-3.78
-4.64
-5.40
-6.01
-6.32
-6.14
-5.31
-3.79
-1.66
0.86
3.51
6.01
8.16
9.84
11.06
11.93
12.58
13.17
13.72
14.19
14.47
14.48
14.19
13.68
13.08
12.44
11.75
10.92
9.82
8.43
6.78
4.99
3.16
1.34
-0.46
-2.29
-4.08
-5.75
-7.16
-8.21
-8.86
-9.16
-9.23
-9.18
-9.11
-9.09
-9.08
-8.98
-8.70
-8.12
-7.29
-6.28
-5.26
-4.40
-3.73
-3.20
-2.69
-2.14
-1.51
-0.92
-0.48
-0.25
-0.16
-0.08
0.16
0.65
1.34
2.07
2.65
2.94
2.92
2.70
2.43
2.20
2.03
1.85
1.56
1.12
0.58
0.07
-0.32
-0.55
-0.72
-0.97
-1.42
-2.10
-2.97
-3.89
-4.66
-5.13
-5.20
-4.82
-4.08
-3.15
-2.19
-1.33
-0.61
0.02
0.64
1.22
1.72
2.02
2.08
1.97
1.85
1.85
1.99
2.17
2.20
1.96
1.47
0.87
0.35
0.02
-0.16
-0.27
-0.49
-0.89
-1.48
-2.20
-2.90
-3.42
-3.66
-3.53
-2.99
-2.12
-0.97
0.43
2.07
4.01
6.26
8.71
11.20
13.55
15.65
17.42
18.80
19.62
19.52
18.12
15.14
10.56
4.75
-1.66
-7.95
-13.44
-17.67
-20.28
-21.08
-19.95
-16.93
-12.25
-6.33
0.21
6.71
12.58
17.37
20.78
22.65
22.91
21.55
18.70
14.65
9.84
4.69
-0.54
-5.94
-11.86
-18.79
-27.05
-36.59
-46.99
-57.59
-67.66
-76.45
-83.25
-87.33
-88.06
-85.04
-78.36
-68.70
-57.11
-44.75
-32.44
-20.46
-8.60
3.59
16.35
29.54
42.56
54.56
64.71
72.48
77.66
80.39
80.96
79.70
76.92
72.91
67.98
62.34
56.20
49.57
42.39
34.66
26.50
18.25
10.40
3.46
-2.23
-6.55
-9.55
-11.38
-12.21
-12.19
-11.58
-10.68
-9.84
-9.33
-9.24
-9.47
-9.73
-9.75
-9.40
-8.71
-7.89
-7.19
-6.80
-6.80
-7.20
-7.92
-8.87
-9.89
-10.80
-11.38
-11.49
-11.07
-10.20
-9.08
-7.90
-6.80
-5.74
-4.57
-3.06
-0.96
1.85
5.42
9.59
14.16
18.82
23.31
27.46
31.17
34.48
37.39
39.89
41.86
43.14
43.56
43.01
41.45
38.87
35.32
30.86
25.59
19.64
13.15
6.24
-1.02
-8.62
-16.55
-24.76
-33.18
-41.73
-50.36
-59.07
-67.94
-76.98
-86.01
-94.65
-102.19
-107.79
-110.62
-110.12
-106.16
-99.19
-90.07
-79.91
-69.74
-60.27
-51.81
-44.36
-37.85
-32.29
-27.89
-24.88
-23.48
-23.67
-25.19
-27.61
-30.38
-32.98
-34.80
-35.18
-33.48
-29.23
-22.34
-13.22
-2.65
8.55
19.86
31.25
43.04
55.66
69.26
83.64
98.26
112.48
125.76
137.69
147.96
156.25
162.18
165.26
164.99
160.90
152.67
140.31
124.26
105.44
85.11
64.62
45.12
27.37
11.74
-1.70
-12.95
-22.01
-28.94
-33.80
-36.83
-38.38
-38.85
-38.59
-37.87
-36.86
-35.66
-34.33
-32.99
-31.80
-30.92
-30.50
-30.57
-30.99
-31.54
-31.96
-32.02
-31.67
-31.02
-30.30
-29.75
-29.53
-29.66
-30.04
-30.49
-30.76
-30.68
-30.16
-29.25
-28.09
-26.84
-25.61
-24.43
-23.24
-21.96
-20.58
-19.11
-17.65
-16.31
-15.13
-14.15
-13.33
-12.64
-12.06
-11.57
-11.19
-10.93
-10.78
-10.72
-10.66
-10.49
-10.07
-9.35
-8.28
-6.96
-5.48
-3.98
-2.59
-1.41
-0.50
0.08
0.30
0.17
-0.26
-0.89
-1.58
-2.22
-2.70
-2.99
-3.04
-2.88
-2.47
-1.79
-0.83
0.38
1.72
3.00
4.03
4.67
4.88
4.75
4.41
4.06
3.81
3.72
3.79
3.93
4.05
4.07
3.92
3.62
3.21
2.73
2.26
1.88
1.62
1.50
1.47
1.46
1.34
1.04
0.52
-0.13
-0.79
-1.29
-1.56
-1.58
-1.36
-0.95
-0.37
0.37
1.19
2.03
2.77
3.35
3.70
3.84
3.78
3.54
3.18
2.79
2.46
2.29
2.32
2.47
2.63
2.67
2.51
2.17
1.71
1.23
0.77
0.35
-0.08
-0.55
-1.09
-1.70
-2.36
-3.05
-3.71
-4.33
-4.87
-5.25
-5.42
-5.29
-4.81
-4.00
-2.93
-1.74
-0.59
0.42
1.22
1.77
2.09
2.18
2.08
1.86
1.62
1.44
1.36
1.30
1.21
0.96
0.49
-0.19
-1.03
-1.90
-2.71
-3.40
-3.99
-4.58
-5.26
-6.11
-7.08
-8.09
-8.97
-9.58
-9.86
-9.78
-9.37
-8.64
-7.59
-6.20
-4.53
-2.67
-0.75
1.14
2.97
4.78
6.61
8.45
10.16
11.56
12.48
12.87
12.83
12.55
12.20
11.90
11.64
11.32
10.84
10.11
9.15
8.01
6.82
5.65
4.57
3.61
2.81
2.20
1.83
1.70
1.72
1.72
1.47
0.80
-0.33
-1.73
-3.13
-4.22
-4.89
-5.18
-5.22
-5.14
-4.97
-4.64
-4.04
-3.16
-2.05
-0.80
0.51
1.86
3.25
4.63
5.86
6.80
7.30
7.38
7.14
6.82
6.64
6.77
7.25
7.97
8.76
9.37
9.62
9.43
8.76
7.72
6.38
4.89
3.32
1.71
0.10
-1.48
-2.93
-4.17
-5.12
-5.79
-6.25
-6.66
-7.18
-7.98
-9.14
-10.63
-12.30
-13.94
-15.30
-16.17
-16.42
-15.99
-14.95
-13.40
-11.48
-9.37
-7.23
-5.20
-3.35
-1.71
-0.26
1.06
2.28
3.39
4.34
5.12
5.71
6.18
6.64
7.18
7.82
8.50
9.08
9.42
9.48
9.31
9.05
8.85
8.75
8.66
8.39
7.81
6.89
5.80
4.80
4.12
3.82
3.75
3.65
3.23
2.37
1.07
-0.50
-2.16
-3.76
-5.22
-6.54
-7.75
-8.85
-9.75
-10.37
-10.60
-10.45
-9.91
-9.08
-7.99
-6.64
-4.98
-2.99
-0.70
1.73
4.08
6.13
7.75
8.93
9.78
10.46
11.09
11.74
12.42
13.11
13.78
14.45
15.07
15.59
15.89
15.88
15.51
14.91
14.29
13.96
14.18
15.04
16.44
18.10
19.56
20.31
19.91
18.15
15.11
11.19
7.04
3.31
0.48
-1.31
-2.22
-2.54
-2.53
-2.32
-1.91
-1.25
-0.27
1.01
2.60
4.52
6.80
9.45
12.36
15.39
18.30
20.98
23.36
25.48
27.35
28.85
29.74
29.69
28.42
25.83
22.00
17.19
11.66
5.62
-0.80
-7.55
-14.50
-21.45
-28.15
-34.34
-39.93
-45.00
-49.77
-54.46
-59.19
-63.91
-68.41
-72.37
-75.39
-76.99
-76.69
-74.05
-68.83
-61.13
-51.44
-40.60
-29.59
-19.26
-10.18
-2.56
3.69
8.81
13.03
16.51
19.30
21.31
22.41
22.49
21.52
19.63
17.08
14.34
11.99
10.63
10.70
12.38
15.43
19.25
23.01
25.97
27.66
28.03
27.38
26.12
24.61
23.00
21.29
19.46
17.54
15.72
14.17
13.03
12.24
11.61
10.87
9.77
8.18
6.11
3.70
1.20
-1.10
-2.97
-4.32
-5.26
-6.08
-7.18
-8.87
-11.33
-14.51
-18.15
-21.92
-25.50
-28.57
-30.86
-32.13
-32.22
-31.16
-29.14
-26.56
-23.82
-21.12
-18.39
-15.31
-11.47
-6.65
-0.94
5.28
11.57
17.74
23.95
30.72
38.55
47.61
57.50
67.33
76.01
82.68
86.96
89.03
89.34
88.36
86.32
83.27
79.14
74.02
68.25
62.26
56.57
51.54
47.21
43.45
39.96
36.46
32.69
28.46
23.63
18.04
11.57
4.07
-4.56
-14.32
-25.11
-36.68
-48.56
-60.14
-70.70
-79.69
-86.86
-92.38
-96.76
-100.45
-103.57
-105.61
-105.47
-101.75
-93.22
-79.14
-59.54
-35.23
-7.72
21.00
48.61
72.76
91.38
103.06
107.26
104.37
95.51
82.16
65.87
48.04
29.85
12.35
-3.64
-17.58
-29.23
-38.69
-46.22
-52.08
-56.46
-59.52
-61.44
-62.46
-62.78
-62.42
-61.13
-58.44
-53.94
-47.56
-39.76
-31.39
-23.46
-16.75
-11.55
-7.62
-4.34
-0.96
3.22
8.66
15.53
23.66
32.58
41.55
49.63
55.88
59.50
60.09
57.77
53.18
47.32
41.20
35.53
30.45
25.43
19.59
11.99
2.06
-10.12
-23.85
-37.99
-51.33
-62.85
-71.94
-78.41
-82.37
-84.07
-83.75
-81.58
-77.74
-72.49
-66.33
-59.88
-53.73
-48.25
-43.45
-39.08
-34.81
-30.52
-26.33
-22.56
-19.45
-17.01
-15.01
-13.15
-11.29
-9.59
-8.38
-7.93
-8.29
-9.13
-9.89
-10.06
-9.28
-7.57
-5.21
-2.63
-0.18
1.86
3.35
4.31
4.78
4.83
4.55
3.92
2.87
1.25
-1.11
-4.26
-8.09
-12.35
-16.71
-20.90
-24.76
-28.27
-31.47
-34.50
-37.51
-40.74
-44.39
-48.53
-52.96
-57.19
-60.50
-62.21
-61.91
-59.66
-56.05
-52.05
-48.66
-46.73
-46.61
-48.14
-50.70
-53.41
-55.46
-56.28
-55.68
-53.87
-51.30
-48.47
-45.75
-43.14
-40.09
-35.48
-27.69
-14.96
4.16
30.33
63.15
101.09
141.84
182.79
221.51
256.19
285.81
310.18
329.67
345.00
356.92
366.05
372.79
377.29
379.44
378.79
374.64
366.08
352.34
333.11
308.92
281.05
251.13
220.50
189.60
157.77
123.51
85.15
41.52
-7.59
-61.32
-118.11
-176.21
-234.09
-290.60
-344.63
-394.45
-437.12
-468.51
-484.16
-480.84
-458.05
-418.62
-368.04
-312.55
-257.19
-204.63
-155.48
-109.45
-66.77
-28.75
2.75
26.38
42.25
52.05
58.31
63.21
67.79
71.70
73.68
72.25
66.46
56.38
43.23
29.18
16.95
9.14
7.46
12.28
22.40
35.38
48.22
58.29
64.00
65.24
63.14
59.51
55.95
53.25
50.97
47.67
41.40
30.41
14.02
-6.95
-29.98
-51.34
-67.02
-73.90
-70.82
-58.97
-41.50
-22.47
-5.60
6.54
12.87
13.53
9.40
1.69
-8.37
-19.92
-32.84
-48.01
-67.00
-91.19
-120.67
-153.35
-184.96
-209.93
-222.88
-220.03
-200.01
-164.11
-116.09
-61.70
-8.15
36.90
66.79
77.59
69.49
47.14
18.53
-7.49
-23.86
-27.29
-18.68
-1.87
18.35
38.21
55.87
71.18
84.61
96.33
105.73
111.66
113.17
109.99
102.71
92.42
80.32
67.21
53.55
39.54
25.42
11.44
-2.13
-15.25
-28.00
-40.30
-51.50
-60.16
-64.41
-62.63
-54.31
-40.46
-23.34
-5.65
10.46
23.94
34.69
42.99
48.84
51.70
50.81
45.69
36.59
24.63
11.41
-1.39
-12.46
-21.02
-26.79
-29.78
-30.18
-28.22
-24.25
-18.82
-12.81
-7.29
-3.38
-1.77
-2.29
-3.87
-4.71
-2.95
2.62
12.12
24.55
38.28
51.55
63.04
71.96
77.97
80.99
80.99
78.08
72.50
64.73
55.46
45.49
35.45
25.74
16.43
7.45
-1.23
-9.35
-16.32
-21.47
-24.27
-24.83
-23.95
-22.99
-23.44
-26.39
-32.27
-40.81
-51.30
-62.85
-74.55
-85.52
-94.93
-102.11
-106.64
-108.42
-107.61
-104.42
-99.00
-91.40
-81.73
-70.46
-58.47
-46.92
-36.95
-29.29
-24.18
-21.40
-20.57
-21.29
-23.29
-26.35
-30.13
-34.11
-37.55
-39.60
-39.37
-36.20
-29.78
-20.28
-8.25
5.44
19.99
34.75
49.28
63.21
76.00
86.97
95.39
100.86
103.49
104.01
103.58
103.45
104.60
107.58
112.40
118.63
125.48
131.95
137.14
140.48
141.96
142.24
142.35
143.44
146.29
151.14
157.62
164.87
171.74
177.08
179.96
179.87
176.96
171.93
165.85
159.61
153.49
146.84
138.36
126.62
110.77
90.79
67.44
41.71
14.36
-14.23
-43.81
-73.79
-102.93
-129.42
-151.45
-167.77
-178.17
-183.49
-185.21
-184.76
-183.15
-180.65
-176.96
-171.49
-163.74
-153.66
-141.72
-128.93
-116.68
-106.55
-99.90
-97.59
-99.66
-105.23
-112.76
-120.46
-126.69
-130.33
-130.78
-127.77
-121.36
-111.85
-99.94
-86.75
-73.68
-61.96
-52.34
-44.89
-39.17
-34.64
-31.01
-28.40
-27.15
-27.69
-30.29
-35.02
-41.72
-49.87
-58.57
-66.52
-72.12
-73.84
-70.56
-61.77
-47.65
-28.90
-6.59
18.04
43.58
68.52
91.32
110.58
125.27
135.02
140.22
141.87
141.41
140.10
138.73
137.31
135.15
131.20
124.48
114.49
101.36
85.86
69.17
52.59
37.29
24.05
13.16
4.33
-3.13
-10.10
-17.23
-24.72
-32.18
-38.73
-43.38
-45.34
-44.33
-40.67
-35.20
-29.05
-23.37
-19.11
-16.74
-16.26
-17.21
-18.83
-20.30
-20.94
-20.27
-18.02
-14.12
-8.75
-2.41
4.10
9.78
13.75
15.56
15.40
14.03
12.39
11.23
10.76
10.69
10.34
9.02
6.22
1.70
-4.51
-12.12
-20.60
-29.20
-37.02
-43.23
-47.29
-49.14
-49.29
-48.59
-47.96
-47.99
-48.81
-50.03
-50.90
-50.57
-48.34
-43.80
-36.94
-28.24
-18.62
-9.41
-2.13
1.82
1.42
-3.64
-12.91
-25.21
-38.84
-51.98
-63.00
-70.81
-75.05
-76.09
-74.61
-71.22
-66.05
-58.66
-48.44
-35.04
-18.93
-1.38
15.85
31.14
43.41
52.36
58.22
61.42
62.38
61.48
59.25
56.40
53.82
52.04
50.92
49.42
45.86
38.63
27.03
11.82
-4.82
-19.93
-30.89
-36.32
-36.66
-33.85
-30.66
-29.61
-31.99
-37.48
-44.25
-49.82
-52.08
-50.05
-43.89
-34.21
-21.25
-4.53
16.67
42.38
70.99
99.41
124.04
142.20
152.96
156.90
154.96
147.29
132.92
110.49
79.60
41.76
0.32
-40.49
-76.83
-106.35
-128.41
-143.61
-152.91
-156.83
-155.16
-147.12
-132.10
-110.31
-83.16
-52.96
-22.15
7.63
36.04
63.92
92.46
122.34
153.04
182.83
209.29
230.07
243.58
249.49
248.72
243.16
234.95
225.60
215.30
202.86
186.29
163.99
135.85
103.72
71.11
42.02
19.66
5.41
-1.42
-3.22
-3.10
-3.87
-7.39
-14.26
-24.00
-35.56
-47.73
-59.43
-69.84
-78.29
-84.24
-87.28
-87.25
-84.31
-78.97
-71.89
-63.71
-54.88
-45.68
-36.22
-26.64
-17.19
-8.38
-0.95
4.17
6.12
4.36
-1.11
-9.64
-20.01
-30.77
-40.65
-48.93
-55.64
-61.38
-66.90
-72.54
-77.86
-81.73
-82.68
-79.59
-72.20
-61.24
-48.19
-34.76
-22.36
-11.97
-4.22
0.54
2.13
0.81
-2.54
-6.38
-9.01
-9.17
-6.71
-2.65
1.24
3.32
2.89
0.45
-2.58
-4.59
-4.65
-2.78
0.02
2.37
3.04
1.34
-2.81
-8.96
-16.45
-24.52
-32.44
-39.61
-45.65
-50.40
-54.01
-56.70
-58.70
-59.94
-60.11
-58.81
-55.82
-51.41
-46.21
-41.02
-36.39
-32.42
-28.82
-25.21
-21.40
-17.58
-14.20
-11.62
-9.88
-8.69
-7.61
-6.44
-5.40
-5.11
-6.24
-9.13
-13.46
-18.30
-22.41
-24.70
-24.62
-22.21
-17.88
-12.17
-5.53
1.59
8.45
14.09
17.49
18.19
16.67
14.38
13.17
14.40
18.19
23.34
27.93
30.37
30.14
27.94
25.21
23.24
22.62
23.10
23.91
24.33
23.92
22.61
20.44
17.39
13.34
8.23
2.23
-4.21
-10.41
-15.74
-19.76
-22.34
-23.59
-23.77
-23.15
-22.02
-20.59
-19.01
-17.38
-15.71
-13.84
-11.47
-8.26
-3.99
1.22
6.82
11.88
15.37
16.61
15.51
12.62
8.88
5.24
2.29
0.19
-1.36
-2.78
-4.51
-6.84
-9.84
-13.51
-17.68
-22.13
-26.52
-30.45
-33.47
-35.16
-35.25
-33.74
-31.01
-27.75
-24.77
-22.63
-21.36
-20.36
-18.62
-15.21
-9.73
-2.57
5.22
12.43
18.10
21.85
23.93
24.90
25.46
26.16
27.34
29.15
31.50
34.07
36.31
37.53
37.09
34.62
30.15
24.11
17.26
10.50
4.65
0.26
-2.51
-3.96
-4.71
-5.56
-7.11
-9.59
-12.65
-15.55
-17.48
-17.98
-17.19
-15.86
-14.92
-15.01
-16.14
-17.63
-18.47
-17.87
-15.63
-12.26
-8.69
-5.79
-4.03
-3.32
-3.19
-3.13
-2.82
-2.25
-1.56
-0.93
-0.46
-0.20
-0.26
-0.83
-2.10
-4.10
-6.51
-8.77
-10.24
-10.50
-9.53
-7.70
-5.60
-3.76
-2.55
-2.12
-2.52
-3.76
-5.83
-8.60
-11.76
-14.83
-17.34
-19.03
-19.98
-20.60
-21.44
-22.97
-25.41
-28.71
-32.61
-36.77
-40.74
-43.93
-45.53
-44.56
-40.12
-31.84
-20.09
-6.12
8.35
21.64
32.65
41.08
47.33
52.07
55.79
58.64
60.42
60.86
59.85
57.57
54.41
50.73
46.78
42.56
38.00
33.04
27.80
22.61
17.87
13.90
10.75
8.15
5.60
2.55
-1.31
-5.94
-10.90
-15.52
-19.14
-21.39
-22.22
-21.90
-20.84
-19.44
-18.06
-17.03
-16.59
-16.74
-16.98
-16.23
-13.21
-7.04
2.13
13.03
23.72
32.50
38.73
43.07
47.02
52.03
58.75
66.77
74.97
82.10
87.35
90.37
91.05
89.27
84.76
77.23
66.73
53.77
39.36
24.75
11.02
-1.19
-11.76
-20.89
-28.80
-35.52
-40.77
-44.18
-45.47
-44.68
-42.25
-38.92
-35.55
-32.95
-31.59
-31.59
-32.60
-33.92
-34.70
-34.17
-31.89
-27.84
-22.43
-16.36
-10.41
-5.22
-1.18
1.63
3.32
4.11
4.26
4.01
3.55
3.06
2.56
1.96
1.06
-0.34
-2.33
-4.79
-7.43
-9.93
-12.06
-13.86
-15.50
-17.22
-19.12
-21.10
-22.92
-24.23
-24.68
-24.00
-21.98
-18.58
-13.93
-8.50
-3.01
1.72
4.93
6.17
5.43
3.05
-0.45
-4.48
-8.58
-12.35
-15.52
-17.92
-19.55
-20.62
-21.43
-22.32
-23.39
-24.52
-25.39
-25.77
-25.66
-25.33
-25.14
-25.30
-25.69
-25.91
-25.55
-24.44
-22.72
-20.79
-19.05
-17.65
-16.44
-15.05
-13.14
-10.63
-7.73
-4.88
-2.53
-0.94
-0.20
-0.22
-0.79
-1.51
-1.73
-0.56
2.88
9.08
17.76
27.84
37.78
46.15
52.19
55.89
57.84
58.66
58.76
58.21
57.01
55.25
53.21
51.10
48.88
46.21
42.60
37.79
31.97
25.73
19.94
15.31
12.23
10.64
10.13
10.17
10.28
10.16
9.72
9.00
8.08
6.98
5.61
3.87
1.73
-0.62
-2.86
-4.58
-5.50
-5.65
-5.39
-5.30
-5.90
-7.50
-9.98
-12.85
-15.37
-16.80
-16.61
-14.63
-11.17
-6.97
-2.97
-0.10
1.00
0.13
-2.43
-6.04
-9.90
-13.29
-15.72
-16.90
-16.83
-15.72
-13.97
-12.14
-10.76
-10.30
-11.01
-12.87
-15.62
-18.89
-22.33
-25.61
-28.50
-30.71
-31.92
-31.77
-29.95
-26.36
-21.07
-14.41
-6.83
1.12
8.87
15.76
21.18
24.55
25.52
24.13
20.82
16.39
11.82
7.94
5.22
3.68
2.93
2.44
1.75
0.69
-0.65
-1.98
-2.98
-3.44
-3.19
-2.15
-0.25
2.49
5.85
9.29
12.09
13.50
13.04
10.72
7.04
2.81
-1.19
-4.40
-6.62
-7.98
-8.73
-9.10
-9.16
-8.84
-7.95
-6.22
-3.50
0.25
4.77
9.60
14.09
17.57
19.51
19.71
18.28
15.62
12.28
8.78
5.47
2.53
-0.03
-2.26
-4.19
-5.83
-7.16
-8.11
-8.62
-8.61
-7.95
-6.58
-4.55
-2.20
-0.23
0.48
-0.89
-4.72
-10.67
-17.83
-25.03
-31.37
-36.53
-40.83
-44.78
-48.78
-52.80
-56.42
-59.18
-60.86
-61.61
-61.87
-62.05
-62.26
-62.24
-61.51
-59.73
-57.01
-54.07
-52.08
-52.26
-55.39
-61.39
-69.18
-77.01
-82.90
-85.41
-84.13
-79.89
-74.49
-70.08
-68.40
-69.99
-73.78
-76.98
-75.61
-65.44
-43.15
-7.36
40.95
98.52
160.61
221.89
277.45
323.35
356.89
376.49
381.32
371.22
346.85
310.35
265.88
219.67
178.78
148.96
132.39
126.40
124.13
116.97
98.03
64.89
20.35
-28.96
-75.25
-112.17
-136.08
-145.79
-141.44
-123.35
-91.74
-47.35
7.70
69.37
132.23
190.66
240.43
279.59
308.27
327.86
339.80
344.99
344.08
337.80
327.44
314.54
300.12
283.76
263.36
235.77
198.22
149.69
91.70
28.09
-36.04
-95.69
-147.14
-188.65
-220.68
-245.73
-267.94
-292.47
-324.36
-367.08
-420.82
-481.47
-540.95
-589.18
-617.19
-620.01
-598.13
-556.70
-502.99
-443.51
-382.17
-320.17
-257.39
-194.05
-131.48
-71.68
-16.22
34.70
82.39
128.87
176.04
225.28
277.50
333.07
391.38
449.67
502.54
542.53
562.11
556.47
525.43
473.60
408.55
338.04
267.71
200.15
135.46
72.53
10.24
-51.72
-112.57
-170.21
-221.35
-262.13
-289.58
-302.89
-304.43
-299.37
-294.37
-295.91
-309.05
-336.91
-380.59
-438.64
-506.27
-575.00
-633.65
-671.03
-679.37
-656.91
-608.08
-541.26
-465.21
-385.98
-305.86
-224.59
-141.73
-58.52
21.60
94.29
156.35
207.35
250.01
289.19
329.74
374.14
420.63
463.33
494.10
505.56
494.19
461.77
414.59
360.69
306.93
256.79
210.19
164.87
118.08
67.61
11.91
-50.16
-118.93
-192.90
-267.78
-336.47
-390.82
-424.42
-435.04
-425.36
-401.67
-371.24
-339.83
-310.49
-283.84
-259.24
-235.71
-212.30
-187.88
-160.98
-129.99
-93.84
-52.68
-8.30
36.12
76.56
109.32
131.97
143.80
145.96
140.77
131.13
119.66
108.34
98.55
91.42
88.21
90.36
99.12
114.75
135.83
159.12
180.35
195.66
203.04
203.24
199.23
194.90
193.28
195.46
200.56
206.63
211.88
215.37
216.96
216.76
214.70
210.40
203.42
193.39
179.98
162.84
141.78
117.38
91.38
66.68
46.45
32.97
26.64
26.08
29.01
33.68
39.63
47.55
58.43
72.62
89.54
107.96
126.69
144.97
162.59
179.64
196.28
212.51
227.87
241.26
250.82
254.36
250.13
237.71
218.60
195.92
173.23
153.09
136.05
120.47
103.37
81.84
54.37
21.63
-13.70
-47.85
-77.27
-99.72
-114.89
-124.31
-130.58
-136.26
-142.77
-149.73
-154.87
-154.94
-147.13
-130.56
-107.26
-81.91
-60.49
-48.12
-47.25
-56.89
-73.06
-90.58
-104.86
-113.24
-115.40
-112.84
-108.03
-103.52
-101.25
-102.25
-106.54
-113.12
-120.25
-125.96
-128.83
-128.80
-127.95
-130.38
-140.98
-163.10
-196.05
-234.09
-267.44
-285.72
-281.99
-255.53
-211.70
-159.19
-106.13
-57.61
-15.49
19.60
46.13
61.09
61.44
46.68
20.31
-10.55
-37.69
-55.00
-60.55
-56.85
-49.52
-44.72
-47.01
-57.87
-75.35
-94.74
-109.96
-115.61
-108.97
-91.29
-67.42
-44.04
-26.62
-16.98
-12.57
-7.96
2.12
20.01
43.90
69.04
90.28
104.56
111.95
114.78
115.77
116.60
117.42
117.75
117.67
118.44
122.12
130.47
143.81
160.63
177.98
192.61
202.16
205.98
205.14
201.81
198.33
196.34
196.46
198.57
202.40
208.09
216.14
226.89
239.59
251.82
259.76
259.26
247.54
224.31
192.16
155.55
119.22
86.46
58.35
33.79
10.44
-13.87
-40.30
-68.48
-96.63
-122.19
-142.45
-155.36
-160.04
-157.23
-149.31
-139.85
-132.81
-131.38
-136.92
-148.20
-161.47
-171.45
-172.98
-162.84
-140.92
-110.19
-75.63
-42.56
-15.03
5.09
18.34
26.94
33.82
41.44
51.00
61.98
72.36
79.61
81.62
77.80
69.57
59.95
52.58
50.51
55.45
67.54
85.82
108.69
134.18
159.88
182.82
199.77
208.07
206.62
196.51
180.85
163.62
148.12
135.84
126.12
116.85
105.58
90.51
70.66
45.57
14.89
-21.58
-63.25
-108.05
-152.28
-191.67
-223.16
-246.63
-265.51
-285.49
-311.96
-347.03
-387.83
-427.04
-455.30
-464.57
-450.70
-414.50
-361.02
-297.90
-233.35
-174.76
-127.63
-94.91
-76.72
-70.26
-70.33
-70.60
-65.58
-52.36
-31.89
-8.63
10.90
20.40
16.07
-1.93
-29.14
-58.09
-80.50
-89.95
-83.69
-62.79
-31.13
6.34
45.25
82.61
116.77
146.87
172.44
193.34
210.11
224.06
237.14
251.39
268.35
288.54
311.21
334.19
353.89
365.86
365.66
350.19
318.81
273.58
218.71
159.46
100.99
47.37
1.17
-36.80
-67.42
-92.86
-116.19
-140.72
-169.23
-203.22
-242.12
-282.87
-320.29
-348.38
-362.25
-359.97
-343.00
-315.11
-280.15
-240.10
-194.89
-144.07
-89.30
-35.69
9.31
39.20
51.86
51.02
44.75
41.68
47.18
61.65
81.27
100.58
115.04
122.00
120.11
108.27
85.64
52.63
12.69
-27.20
-58.12
-72.48
-67.42
-46.18
-16.54
12.89
36.44
53.24
66.34
79.80
95.96
114.05
130.94
143.19
148.87
148.40
143.91
137.91
131.86
125.47
117.07
104.53
86.51
63.08
35.54
5.64
-25.59
-58.28
-93.40
-131.55
-171.92
-211.92
-248.08
-277.62
-299.72
-315.74
-328.19
-339.27
-349.74
-358.89
-365.17
-366.79
-362.02
-348.99
-326.01
-292.38
-249.55
-201.47
-153.75
-111.87
-79.31
-56.94
-43.53
-37.15
-36.26
-39.93
-47.49
-57.92
-69.67
-80.82
-89.55
-94.38
-94.23
-88.55
-77.34
-61.34
-41.76
-19.95
2.88
25.93
48.87
72.00
96.05
121.86
149.38
176.89
200.83
216.80
221.42
214.04
197.24
175.51
153.25
132.94
114.88
98.17
82.32
68.08
57.02
50.43
48.43
50.05
54.09
60.00
68.07
78.91
92.79
109.07
126.42
143.31
158.42
170.63
178.73
181.43
177.84
168.29
154.89
141.26
131.22
127.09
128.32
131.43
131.21
122.76
103.38
73.71
37.42
0.00
-33.08
-58.01
-73.46
-80.28
-80.71
-77.37
-72.70
-69.06
-68.85
-74.36
-87.04
-106.56
-130.32
-153.74
-171.31
-178.04
-170.78
-149.08
-115.54
-75.43
-35.59
-2.49
19.88
31.41
35.82
38.68
44.58
54.76
66.52
74.55
73.56
60.41
35.12
0.45
-39.35
-79.67
-116.14
-145.05
-163.78
-171.36
-168.95
-159.57
-147.09
-134.80
-124.16
-114.53
-104.01
-90.68
-73.55
-52.65
-28.35
-0.67
30.67
65.41
101.69
135.68
162.68
179.12
184.37
181.22
174.71
169.83
169.38
173.15
178.48
181.90
180.57
173.11
159.47
140.43
117.06
90.49
62.02
33.22
6.13
-16.98
-34.06
-43.88
-46.51
-43.33
-36.58
-28.45
-20.37
-12.62
-4.50
4.92
16.08
28.40
40.19
49.11
52.87
50.04
40.72
26.69
11.01
-3.00
-12.97
-18.41
-20.70
-22.33
-25.55
-31.61
-40.60
-52.01
-65.44
-80.80
-98.01
-116.49
-134.84
-151.09
-163.28
-170.14
-171.31
-167.13
-158.25
-145.32
-129.00
-110.08
-89.53
-68.32
-47.39
-27.68
-10.36
3.17
11.76
15.21
14.86
13.44
14.17
19.37
29.48
42.85
56.44
67.13
72.69
72.30
66.36
55.99
42.68
28.19
14.54
3.70
-2.87
-4.74
-2.71
1.44
5.78
8.99
10.92
12.52
15.40
21.29
31.52
46.65
66.15
88.09
109.08
124.79
131.34
126.84
112.53
92.67
73.01
58.51
51.40
50.62
52.71
53.58
50.18
41.22
27.02
8.80
-11.91
-33.51
-54.34
-72.72
-87.25
-97.17
-102.70
-104.95
-105.41
-105.27
-104.74
-102.94
-98.21
-88.85
-73.87
-53.52
-29.60
-5.26
15.68
29.65
34.51
30.47
20.15
7.85
-1.93
-6.14
-4.15
2.27
9.92
15.55
17.02
13.69
6.25
-3.94
-15.27
-26.21
-35.38
-41.76
-44.84
-44.77
-42.17
-37.79
-32.01
-24.57
-14.70
-1.53
15.47
36.13
59.49
83.63
105.71
122.23
129.81
126.38
112.42
91.34
68.78
50.66
40.90
39.92
44.63
49.97
51.14
45.45
32.88
15.56
-3.64
-22.33
-39.23
-54.07
-67.17
-78.88
-89.27
-98.23
-105.50
-110.72
-113.41
-112.85
-108.18
-98.64
-83.96
-64.63
-42.14
-18.93
1.96
17.40
25.15
24.68
17.66
7.60
-1.21
-5.35
-3.41
3.69
13.34
22.55
28.99
31.52
29.90
24.41
15.59
4.37
-7.74
-18.78
-26.85
-30.77
-30.60
-27.50
-23.18
-19.06
-15.65
-12.38
-7.77
0.11
13.07
32.15
56.91
84.88
111.61
131.52
139.69
133.78
115.17
88.79
61.43
39.25
25.85
21.44
23.53
28.38
32.43
33.17
29.20
20.03
5.86
-12.58
-33.90
-56.11
-76.78
-93.58
-104.71
-109.52
-108.60
-103.53
-96.21
-88.08
-79.55
-69.88
-57.61
-41.39
-20.76
3.34
28.50
51.33
68.24
76.51
75.25
65.88
51.94
37.94
27.88
23.86
25.55
30.75
36.65
41.11
43.30
43.47
42.25
40.09
37.05
33.13
28.67
24.46
21.42
20.05
20.12
20.67
20.60
19.30
17.04
15.09
15.29
19.41
28.53
42.41
59.18
75.50
87.26
90.79
84.15
68.15
46.42
24.41
7.62
-0.41
0.69
8.09
16.96
22.45
21.33
12.87
-1.44
-18.94
-37.09
-54.17
-69.38
-82.38
-92.75
-99.85
-103.14
-102.61
-99.08
-93.86
-88.23
-82.86
-77.68
-72.17
-65.86
-58.64
-50.74
-42.51
-34.17
-25.91
-18.06
-11.23
-6.15
-3.19
-1.87
-0.81
1.76
7.24
15.84
26.41
36.87
44.96
49.10
48.83
44.76
38.17
30.42
22.53
14.99
7.97
1.60
-3.91
-8.23
-11.17
-12.96
-14.27
-16.01
-18.87
-22.84
-27.18
-30.57
-31.51
-28.81
-21.89
-10.95
3.00
18.21
32.32
42.83
47.71
46.17
39.13
29.25
20.16
15.28
16.44
23.19
32.88
41.67
45.91
43.31
33.51
17.76
-1.77
-22.79
-43.30
-61.73
-76.79
-87.60
-93.84
-95.90
-94.90
-92.32
-89.49
-87.21
-85.52
-83.75
-80.60
-74.42
-63.53
-46.84
-24.47
1.93
29.31
54.10
73.40
85.92
92.17
93.95
93.20
91.14
87.91
82.97
75.71
66.01
54.29
41.35
28.09
15.28
3.66
-6.17
-13.77
-19.02
-22.25
-24.05
-25.05
-25.63
-25.86
-25.46
-23.68
-19.11
-9.65
6.75
30.81
60.38
89.94
111.88
119.35
109.39
84.66
52.70
22.84
2.40
-5.81
-3.69
4.03
12.45
18.34
20.45
18.70
13.17
3.63
-10.13
-27.61
-47.08
-65.80
-80.91
-90.29
-93.27
-90.63
-83.92
-74.68
-63.70
-51.10
-36.65
-20.44
-3.35
13.04
26.95
37.17
43.54
46.94
48.75
50.11
51.40
52.26
51.89
49.69
45.54
39.76
32.77
24.63
15.02
3.43
-10.31
-25.62
-41.18
-55.22
-66.10
-72.81
-75.18
-73.77
-69.59
-63.66
-56.65
-48.62
-38.85
-25.87
-7.67
17.66
51.00
91.19
134.41
174.42
204.08
217.64
213.22
193.78
166.28
138.98
118.30
106.67
102.30
100.85
97.64
89.49
75.19
55.03
29.89
0.91
-30.29
-61.30
-88.92
-109.90
-122.11
-125.46
-122.00
-115.22
-108.68
-104.73
-103.69
-104.12
-103.68
-100.42
-93.63
-83.94
-72.67
-61.02
-49.64
-38.79
-28.72
-20.00
-13.19
-8.38
-4.73
-0.70
5.11
13.09
22.16
30.17
34.93
35.35
31.85
26.03
19.73
14.03
8.96
3.70
-2.55
-9.87
-17.31
-23.20
-25.93
-24.74
-19.99
-12.98
-5.23
2.09
8.56
14.51
20.80
28.50
38.61
51.62
67.02
82.91
96.06
102.65
99.55
85.87
63.61
37.39
12.93
-4.88
-13.53
-13.46
-7.46
0.47
6.49
7.66
2.43
-9.43
-26.84
-47.68
-69.03
-87.78
-101.27
-108.04
-108.25
-103.53
-96.42
-89.46
-84.31
-81.35
-79.72
-77.95
-74.59
-68.89
-60.87
-51.32
-41.32
-31.88
-23.62
-16.56
-10.08
-3.08
5.69
17.13
31.22
46.82
61.86
73.90
81.05
82.50
78.73
71.07
61.17
50.45
39.91
30.19
21.71
14.78
9.53
5.89
3.58
2.24
1.71
2.03
3.44
6.30
11.00
17.87
27.01
37.94
49.17
58.11
61.70
57.42
44.62
25.21
3.30
-16.14
-29.02
-33.50
-30.33
-22.14
-12.08
-2.59
5.26
11.64
17.40
23.27
29.38
35.23
39.93
42.68
43.08
41.10
37.07
31.51
25.19
19.04
13.80
9.67
5.94
1.20
-6.26
-17.74
-33.46
-52.38
-72.23
-89.93
-102.14
-105.90
-99.28
-82.07
-56.17
-25.47
4.92
29.95
45.96
51.40
46.96
34.96
18.62
1.46
-13.18
-22.69
-25.69
-22.51
-15.26
-7.27
-1.88
-1.05
-4.48
-9.65
-13.04
-11.59
-4.16
7.93
21.41
32.28
37.25
34.76
25.51
12.22
-1.19
-10.83
-14.08
-10.52
-2.06
7.77
15.08
17.05
12.75
3.15
-9.55
-22.94
-35.15
-45.06
-52.17
-56.29
-57.48
-56.23
-53.60
-51.05
-49.80
-50.22
-51.45
-51.70
-48.83
-41.24
-28.35
-10.80
9.68
30.55
48.92
62.16
68.74
68.79
64.29
58.43
54.42
54.20
57.65
62.77
66.58
66.40
60.76
49.87
35.31
19.48
4.85
-6.73
-14.45
-18.65
-20.55
-21.71
-23.38
-26.03
-29.17
-31.59
-31.64
-27.70
-18.60
-4.09
14.62
34.50
51.05
59.54
56.92
43.52
23.56
3.88
-8.81
-10.69
-2.42
11.43
24.68
32.26
32.05
24.93
13.43
-0.04
-14.35
-29.77
-47.25
-67.31
-89.14
-110.39
-127.76
-137.84
-138.18
-127.85
-107.43
-78.73
-44.35
-7.39
28.88
61.29
87.28
105.30
115.00
116.92
112.07
101.63
86.94
69.86
52.83
38.47
28.63
23.48
21.29
19.25
14.81
6.84
-4.11
-16.29
-27.87
-37.65
-45.26
-50.80
-54.51
-56.55
-57.01
-56.10
-54.21
-51.71
-48.95
-46.02
-42.73
-38.40
-31.83
-21.57
-6.38
13.93
37.97
62.76
84.61
100.40
108.94
111.24
109.96
107.89
106.37
104.50
99.54
88.41
69.39
43.26
13.14
-16.73
-42.73
-62.92
-77.28
-86.85
-92.54
-94.45
-91.98
-84.55
-72.32
-56.35
-38.10
-18.75
1.13
21.36
41.43
59.85
74.07
81.06
78.31
64.94
42.41
14.40
-13.88
-37.20
-51.71
-56.06
-51.57
-41.55
-29.99
-20.34
-14.68
-13.62
-16.71
-22.86
-30.71
-38.83
-45.74
-50.13
-51.03
-47.93
-41.05
-31.34
-20.34
-9.99
-1.93
3.20
6.35
9.87
16.54
27.92
43.00
58.07
68.07
68.89
59.45
42.26
22.16
4.11
-8.91
-16.52
-20.26
-22.13
-23.41
-24.41
-24.95
-25.17
-25.91
-28.44
-33.83
-42.35
-53.21
-64.91
-75.84
-84.83
-91.46
-95.74
-97.59
-96.31
-90.65
-79.51
-62.92
-42.71
-22.18
-5.01
6.24
11.01
10.80
8.19
5.70
5.02
6.82
11.08
17.48
25.56
34.66
43.87
52.05
58.05
60.96
60.22
55.72
47.85
37.45
25.74
14.10
3.75
-4.52
-10.41
-14.01
-15.52
-15.01
-12.39
-7.50
-0.24
9.28
20.78
33.87
48.05
62.70
76.91
89.41
98.69
103.13
101.38
92.84
77.92
58.33
36.85
16.89
1.62
-6.79
-7.80
-2.51
6.74
17.00
25.41
29.66
28.30
21.10
9.11
-5.42
-19.58
-30.67
-37.12
-39.06
-38.22
-37.09
-37.85
-41.40
-47.11
-53.35
-58.60
-62.24
-64.63
-66.43
-67.58
-66.84
-62.17
-51.92
-36.05
-16.50
3.59
21.40
35.70
47.26
57.94
69.30
81.39
92.57
100.32
102.44
98.09
88.06
74.38
59.42
44.99
31.79
19.50
7.24
-5.63
-18.96
-31.72
-42.33
-49.40
-52.28
-51.23
-47.01
-40.44
-32.00
-22.14
-11.73
-2.50
3.23
3.51
-2.02
-11.52
-21.22
-26.84
-25.32
-16.14
-1.55
14.45
27.59
34.73
34.64
27.93
16.49
2.83
-10.58
-21.69
-29.21
-32.83
-33.35
-32.54
-32.73
-35.94
-43.02
-52.97
-63.06
-69.64
-69.64
-61.83
-47.43
-29.58
-12.11
2.08
11.99
18.57
23.94
30.20
38.41
48.15
57.74
64.78
66.97
62.63
51.17
33.11
10.03
-15.78
-41.66
-65.08
-84.22
-98.47
-108.68
-116.76
-124.83
-134.04
-143.76
-151.44
-153.60
-147.08
-130.23
-103.27
-67.91
-26.76
16.98
59.72
97.58
127.18
146.79
157.21
161.56
163.97
167.51
172.73
177.65
179.22
175.18
165.41
151.77
136.83
122.30
108.13
92.76
74.23
51.31
24.17
-5.58
-35.38
-62.29
-83.47
-96.46
-99.61
-92.68
-77.38
-57.63
-38.98
-27.44
-27.76
-41.86
-68.00
-100.96
-133.32
-157.45
-167.74
-162.11
-142.59
-114.38
-84.01
-57.08
-36.57
-22.31
-11.59
-0.74
13.28
31.82
54.28
78.54
101.81
121.52
136.01
144.94
149.04
149.67
148.23
145.85
143.29
140.94
138.68
135.63
130.09
119.91
103.46
80.72
53.80
26.60
3.33
-13.02
-21.86
-24.88
-25.18
-25.72
-28.38
-33.57
-40.56
-48.06
-54.64
-58.99
-60.11
-57.50
-51.29
-42.38
-32.29
-22.62
-14.55
-8.43
-3.84
-0.06
3.25
5.73
6.44
4.39
-1.07
-10.02
-22.17
-37.07
-53.98
-71.60
-87.87
-100.21
-106.36
-105.43
-98.53
-88.43
-78.47
-71.17
-67.33
-66.12
-65.78
-64.52
-61.17
-55.22
-46.56
-35.37
-22.07
-7.37
7.71
22.03
34.74
45.61
55.25
64.79
75.30
87.04
98.95
108.96
114.86
115.50
111.44
104.71
97.83
92.57
89.23
86.81
83.80
79.00
71.92
62.39
50.17
34.74
15.82
-5.87
-28.25
-48.22
-62.73
-69.94
-69.96
-64.70
-56.93
-49.17
-42.85
-38.20
-34.59
-31.35
-28.35
-26.19
-25.95
-28.76
-35.28
-45.30
-57.67
-70.39
-80.94
-86.70
-85.55
-76.39
-59.68
-37.55
-13.52
8.22
23.85
30.81
28.50
18.34
3.36
-12.67
-26.32
-35.31
-39.02
-38.30
-35.05
-31.42
-29.17
-29.15
-31.14
-33.88
-35.44
-33.64
-26.69
-13.83
4.16
24.80
44.42
59.18
66.42
65.77
59.40
51.37
45.91
45.64
50.39
57.29
62.07
60.95
52.15
36.45
16.56
-4.18
-23.12
-39.02
-52.13
-63.58
-74.65
-86.05
-97.72
-108.76
-117.76
-123.12
-123.54
-118.25
-107.18
-91.11
-71.57
-50.85
-31.71
-16.83
-7.95
-5.05
-6.11
-7.66
-6.08
0.92
13.30
28.72
43.52
54.22
58.68
56.61
49.19
38.36
25.99
13.62
2.36
-6.92
-13.64
-17.54
-18.81
-17.98
-15.52
-11.48
-5.27
4.16
17.85
36.14
58.25
82.02
104.33
121.73
131.41
132.10
124.48
111.10
95.61
81.74
72.16
67.67
67.09
67.67
66.05
59.36
46.26
27.46
5.49
-16.09
-34.13
-47.00
-55.16
-60.68
-66.18
-73.51
-82.95
-93.19
-102.05
-107.35
-107.84
-103.61
-95.86
-86.42
-76.96
-68.49
-61.21
-54.82
-48.92
-43.24
-37.72
-32.21
-26.32
-19.44
-11.13
-1.62
8.04
16.21
21.30
22.43
19.79
14.42
7.80
1.31
-4.09
-7.98
-10.40
-11.68
-12.17
-12.10
-11.45
-9.94
-7.21
-3.01
2.68
9.69
17.76
26.58
35.71
44.39
51.58
56.12
57.16
54.67
49.43
42.87
36.52
31.49
28.18
26.31
25.19
24.00
22.12
19.16
15.05
9.79
3.33
-4.73
-15.23
-29.22
-47.30
-68.87
-91.65
-111.91
-125.56
-129.40
-122.25
-105.29
-81.50
-54.64
-28.34
-5.41
12.27
23.66
28.47
27.26
21.52
13.63
6.40
2.34
2.97
8.38
17.30
27.63
37.18
44.43
48.82
50.79
51.32
51.40
51.65
52.21
52.89
53.40
53.64
53.66
53.59
53.47
53.27
52.99
52.77
53.03
54.40
57.53
62.87
70.49
80.05
90.70
101.12
109.55
114.02
112.80
104.94
90.85
72.40
52.64
34.91
21.80
14.40
12.10
13.01
14.85
15.76
14.71
11.56
6.63
0.38
-6.87
-14.91
-23.50
-32.33
-41.11
-49.72
-58.38
-67.45
-77.24
-87.52
-97.45
-105.67
-110.68
-111.29
-106.96
-97.94
-85.27
-70.62
-55.96
-43.17
-33.53
-27.36
-23.89
-21.60
-18.83
-14.38
-7.96
-0.21
7.64
14.31
18.78
20.57
19.61
16.24
11.09
5.02
-1.05
-6.26
-10.06
-12.35
-13.46
-13.97
-14.27
-14.28
-13.32
-10.25
-3.89
6.56
21.16
39.02
58.32
76.42
90.33
97.31
95.67
85.42
68.53
48.43
29.07
13.63
3.67
-1.07
-2.19
-1.66
-1.12
-1.37
-2.55
-4.52
-7.32
-11.34
-17.24
-25.52
-36.16
-48.52
-61.40
-73.49
-83.70
-91.41
-96.39
-98.56
-97.85
-94.12
-87.30
-77.70
-66.05
-53.51
-41.47
-31.22
-23.62
-18.91
-16.46
-14.89
-12.33
-7.03
1.97
14.42
28.67
42.12
52.06
56.58
55.12
48.56
38.77
27.84
17.56
9.02
2.71
-1.32
-3.26
-3.45
-2.45
-0.92
0.40
1.02
0.87
0.49
0.86
3.23
8.65
17.58
29.47
42.63
54.37
61.65
62.00
54.45
40.14
22.23
5.02
-7.33
-12.12
-8.80
1.00
14.24
27.38
37.40
42.28
41.22
34.55
23.41
9.35
-5.96
-21.14
-35.40
-48.64
-61.35
-74.04
-86.70
-98.33
-107.05
-110.65
-107.61
-97.84
-82.83
-65.09
-47.11
-30.67
-16.61
-5.23
3.11
7.92
8.92
6.76
3.27
1.10
2.60
8.71
18.45
29.28
38.29
43.39
43.92
40.49
34.24
26.13
16.59
5.66
-6.63
-19.86
-33.10
-45.11
-54.64
-60.66
-62.60
-60.45
-54.70
-46.16
-35.62
-23.50
-9.69
6.15
24.13
43.51
62.48
78.54
89.46
94.16
93.33
89.10
84.16
80.58
79.09
78.96
78.62
76.58
72.14
65.56
57.76
49.74
42.12
34.99
28.11
21.18
14.07
6.77
-0.71
-8.38
-16.22
-23.91
-30.80
-35.93
-38.45
-37.90
-34.46
-28.84
-22.09
-15.42
-10.03
-7.00
-7.00
-9.93
-14.64
-19.02
-20.66
-17.79
-10.13
0.87
12.56
22.16
27.83
29.12
26.82
22.25
16.61
10.58
4.50
-1.36
-6.56
-10.44
-12.50
-12.69
-11.55
-10.00
-8.90
-8.68
-9.15
-9.61
-9.09
-6.64
-1.60
6.26
16.48
27.85
38.43
45.96
48.63
45.77
38.31
28.58
19.55
13.76
12.51
15.49
21.12
27.13
31.38
32.32
29.26
22.34
12.37
0.51
-11.95
-23.84
-34.26
-42.76
-49.43
-54.81
-59.67
-64.56
-69.48
-73.71
-76.09
-75.55
-71.56
-64.47
-55.19
-44.86
-34.42
-24.49
-15.54
-8.06
-2.43
1.32
3.75
6.01
9.34
14.35
20.64
26.89
31.43
33.07
31.52
27.41
21.81
15.71
9.71
4.00
-1.39
-6.30
-10.41
-13.31
-14.77
-14.81
-13.78
-12.15
-10.37
-8.66
-7.00
-5.08
-2.38
1.75
7.87
16.12
25.92
35.80
43.65
47.35
45.63
38.73
28.49
17.82
9.60
5.66
6.26
10.20
15.54
20.35
23.34
24.00
22.41
19.02
14.36
9.01
3.51
-1.73
-6.62
-11.47
-17.02
-24.07
-33.08
-43.73
-54.89
-64.84
-71.98
-75.37
-75.01
-71.76
-66.71
-60.77
-54.26
-47.04
-38.75
-29.18
-18.31
-6.25
6.77
20.34
33.68
45.53
54.28
58.51
57.63
52.22
43.93
34.92
27.07
21.39
17.92
15.99
14.73
13.48
11.96
10.18
8.28
6.40
4.66
3.25
2.38
2.33
3.33
5.56
9.11
13.89
19.56
25.31
29.92
31.93
30.16
24.27
15.17
4.93
-3.84
-8.92
-9.32
-5.60
0.42
6.47
10.61
11.84
10.10
6.05
0.57
-5.45
-11.34
-16.54
-20.67
-23.58
-25.52
-27.20
-29.68
-33.92
-40.21
-47.77
-54.81
-59.09
-58.78
-53.25
-43.39
-31.27
-19.41
-9.92
-3.94
-1.45
-1.48
-2.53
-2.98
-1.42
3.00
10.36
19.90
30.15
39.34
45.90
48.85
48.09
44.26
38.48
32.03
26.00
21.20
18.01
16.45
16.24
16.85
17.66
18.05
17.59
16.07
13.60
10.52
7.29
4.38
2.28
1.46
2.33
5.10
9.58
15.06
20.41
24.38
26.10
25.34
22.63
19.02
15.65
13.39
12.59
13.15
14.66
16.51
17.96
18.15
16.18
11.34
3.38
-7.21
-19.18
-30.74
-40.07
-45.83
-47.65
-46.18
-42.86
-39.37
-37.13
-36.87
-38.51
-41.39
-44.54
-47.03
-48.21
-47.87
-46.20
-43.66
-40.70
-37.46
-33.60
-28.31
-20.68
-10.28
2.48
16.28
29.36
40.05
47.29
50.76
50.70
47.59
41.95
34.38
25.73
17.08
9.58
4.06
0.76
-0.72
-1.11
-1.12
-1.16
-1.19
-0.96
-0.22
1.14
3.05
5.32
7.79
10.36
12.95
15.40
17.40
18.48
18.16
16.18
12.70
8.48
4.78
3.04
4.48
9.58
17.70
27.10
35.25
39.70
38.79
32.44
22.17
10.66
0.96
-4.55
-4.74
-0.07
7.73
16.18
22.70
25.29
22.89
15.58
4.41
-8.88
-22.32
-34.18
-43.30
-49.29
-52.50
-53.86
-54.46
-55.26
-56.69
-58.62
-60.36
-60.93
-59.34
-54.90
-47.43
-37.39
-25.91
-14.52
-4.87
1.90
5.50
6.71
7.04
8.17
11.23
16.28
22.29
27.63
30.75
30.86
28.15
23.64
18.65
14.21
10.72
8.04
5.77
3.65
1.75
0.42
-0.04
0.40
1.47
2.77
4.06
5.41
7.09
9.40
12.40
15.87
19.54
23.19
26.74
30.13
33.05
34.88
34.79
32.10
26.56
18.53
8.87
-1.31
-10.82
-18.49
-23.24
-24.21
-21.04
-14.22
-5.24
3.53
9.42
10.16
4.71
-6.47
-21.42
-37.36
-51.48
-61.80
-67.56
-69.20
-67.80
-64.46
-59.84
-54.04
-46.85
-38.13
-28.12
-17.51
-7.25
1.74
8.85
13.90
17.19
19.30
20.89
22.46
24.21
26.06
27.74
29.07
30.00
30.69
31.31
31.88
32.25
32.07
31.04
29.01
26.13
22.78
19.45
16.51
14.14
12.20
10.38
8.37
6.09
3.76
1.90
1.13
1.95
4.43
8.26
12.71
16.92
20.18
22.09
22.67
22.24
21.32
20.41
19.89
19.97
20.66
21.76
22.95
23.88
24.25
23.94
23.03
21.67
20.02
18.10
15.66
12.32
7.77
2.01
-4.49
-10.91
-16.29
-19.94
-21.71
-22.09
-22.01
-22.46
-24.15
-27.30
-31.64
-36.58
-41.45
-45.56
-48.40
-49.59
-49.04
-46.98
-44.00
-40.89
-38.39
-36.95
-36.55
-36.73
-36.81
-36.10
-34.19
-31.04
-26.95
-22.48
-18.14
-14.33
-11.14
-8.39
-5.79
-3.02
0.05
3.29
6.32
8.59
9.58
9.02
7.15
4.90
3.72
5.19
10.35
19.10
29.92
40.13
46.78
47.58
41.86
30.76
16.89
3.46
-6.74
-12.08
-12.33
-8.55
-2.46
4.09
9.64
13.40
15.23
15.46
14.59
13.10
11.34
9.54
7.91
6.62
5.75
5.12
4.29
2.51
-0.90
-6.35
-13.70
-22.31
-31.18
-39.36
-46.12
-51.06
-54.03
-54.97
-53.89
-50.93
-46.45
-41.01
-35.13
-29.02
-22.32
-14.23
-4.06
8.25
21.66
34.13
43.14
46.63
43.70
35.02
22.61
9.16
-2.86
-11.90
-17.71
-21.08
-23.26
-25.16
-26.92
-27.87
-26.94
-23.38
-17.33
-10.02
-3.52
-0.19
-2.03
-10.20
-24.59
-43.74
-64.83
-84.22
-98.15
-103.69
-99.58
-86.37
-65.99
-40.77
-12.32
19.18
55.08
97.43
147.52
204.40
264.06
319.92
364.46
391.57
398.50
386.51
360.11
325.23
287.36
250.33
216.30
186.27
160.75
139.89
123.30
109.77
97.40
84.10
68.18
48.80
26.12
1.25
-24.01
-47.40
-66.76
-80.64
-88.88
-92.89
-95.11
-98.18
-103.84
-112.44
-123.12
-134.45
-145.30
-155.21
-164.25
-172.54
-179.75
-185.06
-187.53
-186.58
-182.33
-175.53
-167.27
-158.51
-149.88
-141.68
-134.10
-127.39
-121.95
-118.10
-115.78
-114.29
-112.49
-109.21
-103.83
-96.53
-87.98
-78.76
-68.74
-56.96
-41.97
-22.74
0.74
27.21
54.56
80.61
103.78
123.37
139.40
152.21
162.11
169.23
173.58
175.15
